1,"Number of Datasets"
3,"Number of Columns per Dataset"
400,"Maximum Number of Rows for Any Dataset"
#DATASETS q-units: Angstrom I-units: Absolute intensity(cm^-1) X thickness(cm) 
"latest_0021228_caz","KF LIPNOR2 DRY 68, conf 21, I0=21, trans=25941048.431906, time=1800","",
q,I,dI,
 6.610893e-03, NaN, NaN
 1.383268e-02, NaN, NaN
 2.105447e-02, NaN, NaN
 2.827625e-02, NaN, NaN
 3.549804e-02, NaN, NaN
 4.271983e-02, NaN, NaN
 4.994161e-02, NaN, NaN
 5.716340e-02, NaN, NaN
 6.438519e-02, 4.208323e-02, 1.122235e-04
 7.160697e-02, 6.355107e-02, 1.209591e-04
 7.882876e-02, 7.867187e-02, 1.372539e-04
 8.605055e-02, 7.867908e-02, 1.253076e-04
 9.327233e-02, 7.846284e-02, 1.202331e-04
 1.004941e-01, 8.117317e-02, 1.178510e-04
 1.077159e-01, 8.658326e-02, 1.168196e-04
 1.149377e-01, 9.483589e-02, 1.214725e-04
 1.221595e-01, 1.052294e-01, 1.210849e-04
 1.293813e-01, 1.173839e-01, 1.236564e-04
 1.366031e-01, 1.277135e-01, 1.249825e-04
 1.438248e-01, 1.338034e-01, 1.213120e-04
 1.510466e-01, 1.332715e-01, 1.216416e-04
 1.582684e-01, 1.271432e-01, 1.131989e-04
 1.654902e-01, 1.126842e-01, 1.048320e-04
 1.727120e-01, 9.701618e-02, 9.536299e-05
 1.799338e-01, 8.081630e-02, 8.507653e-05
 1.871556e-01, 6.591491e-02, 7.544824e-05
 1.943773e-01, 5.437687e-02, 6.853595e-05
 2.015991e-01, 4.450552e-02, 5.949675e-05
 2.088209e-01, 3.718897e-02, 5.284209e-05
 2.160427e-01, 3.104441e-02, 4.874555e-05
 2.232645e-01, 2.697304e-02, 4.446296e-05
 2.304863e-01, 2.332817e-02, 4.003510e-05
 2.377081e-01, 2.063376e-02, 3.832055e-05
 2.449299e-01, 1.859861e-02, 3.468471e-05
 2.521516e-01, 1.671215e-02, 3.315243e-05
 2.593734e-01, 1.540150e-02, 3.091562e-05
 2.665952e-01, 1.431384e-02, 2.885790e-05
 2.738170e-01, 1.337533e-02, 2.783358e-05
 2.810388e-01, 1.276200e-02, 2.712773e-05
 2.882606e-01, 1.235223e-02, 2.708523e-05
 2.954824e-01, 1.205175e-02, 2.630911e-05
 3.027041e-01, 1.174725e-02, 2.696040e-05
 3.099259e-01, 1.168342e-02, 2.597612e-05
 3.171477e-01, 1.144470e-02, 2.590120e-05
 3.243695e-01, 1.117177e-02, 2.610784e-05
 3.315913e-01, 1.086439e-02, 2.494577e-05
 3.388131e-01, 1.037141e-02, 2.415074e-05
 3.460349e-01, 1.015304e-02, 2.406899e-05
 3.532567e-01, 9.990808e-03, 2.416809e-05
 3.604784e-01, 1.004494e-02, 2.319787e-05
 3.677002e-01, 1.024200e-02, 2.407783e-05
 3.749220e-01, 1.075302e-02, 2.439386e-05
 3.821438e-01, 1.127371e-02, 2.492683e-05
 3.893656e-01, 1.169918e-02, 2.534172e-05
 3.965874e-01, 1.193293e-02, 2.498595e-05
 4.038092e-01, 1.178394e-02, 2.568003e-05
 4.110309e-01, 1.134699e-02, 2.391816e-05
 4.182527e-01, 1.060392e-02, 2.357236e-05
 4.254745e-01, 9.813198e-03, 2.253747e-05
 4.326963e-01, 9.086916e-03, 2.078472e-05
 4.399181e-01, 8.470617e-03, 1.936739e-05
 4.471399e-01, 8.052182e-03, 1.888847e-05
 4.543617e-01, 7.771632e-03, 1.795217e-05
 4.615835e-01, 7.570530e-03, 1.751640e-05
 4.688052e-01, 7.329310e-03, 1.729790e-05
 4.760270e-01, 7.232729e-03, 1.658939e-05
 4.832488e-01, 7.164344e-03, 1.669906e-05
 4.904706e-01, 7.023214e-03, 1.598842e-05
 4.976924e-01, 6.996894e-03, 1.603536e-05
 5.049142e-01, 6.899731e-03, 1.590501e-05
 5.121360e-01, 6.838979e-03, 1.551823e-05
 5.193577e-01, 6.754267e-03, 1.538290e-05
 5.265795e-01, 6.742781e-03, 1.528798e-05
 5.338013e-01, 6.696398e-03, 1.478803e-05
 5.410231e-01, 6.662773e-03, 1.469755e-05
 5.482449e-01, 6.632584e-03, 1.484680e-05
 5.554667e-01, 6.599258e-03, 1.423067e-05
 5.626885e-01, 6.541457e-03, 1.433520e-05
 5.699102e-01, 6.507682e-03, 1.417745e-05
 5.771320e-01, 6.473834e-03, 1.393783e-05
 5.843538e-01, 6.467074e-03, 1.390209e-05
 5.915756e-01, 6.453840e-03, 1.376060e-05
 5.987974e-01, 6.422705e-03, 1.343298e-05
 6.060192e-01, 6.395484e-03, 1.354909e-05
 6.132410e-01, 6.406910e-03, 1.326241e-05
 6.204628e-01, 6.384657e-03, 1.333373e-05
 6.276845e-01, 6.394681e-03, 1.318768e-05
 6.349063e-01, 6.398532e-03, 1.294414e-05
 6.421281e-01, 6.403327e-03, 1.287323e-05
 6.493499e-01, 6.383568e-03, 1.296734e-05
 6.565717e-01, 6.340140e-03, 1.271501e-05
 6.637935e-01, 6.329308e-03, 1.270968e-05
 6.710153e-01, 6.347660e-03, 1.243168e-05
 6.782370e-01, 6.323728e-03, 1.251189e-05
 6.854588e-01, 6.341356e-03, 1.251016e-05
 6.926806e-01, 6.333546e-03, 1.238635e-05
 6.999024e-01, 6.315676e-03, 1.216421e-05
 7.071242e-01, 6.361561e-03, 1.219119e-05
 7.143460e-01, 6.369095e-03, 1.222698e-05
 7.215678e-01, 6.365599e-03, 1.218389e-05
 7.287896e-01, 6.435484e-03, 1.205644e-05
 7.360113e-01, 6.456253e-03, 1.212543e-05
 7.432331e-01, 6.560744e-03, 1.207695e-05
 7.504549e-01, 6.586459e-03, 1.185780e-05
 7.576767e-01, 6.674480e-03, 1.215045e-05
 7.648985e-01, 6.731923e-03, 1.210308e-05
 7.721203e-01, 6.783433e-03, 1.205203e-05
 7.793421e-01, 6.846262e-03, 1.209347e-05
 7.865638e-01, 6.893472e-03, 1.204014e-05
 7.937856e-01, 6.895167e-03, 1.191024e-05
 8.010074e-01, 6.942779e-03, 1.199664e-05
 8.082292e-01, 6.921344e-03, 1.183086e-05
 8.154510e-01, 7.013559e-03, 1.197317e-05
 8.226728e-01, 7.003998e-03, 1.179276e-05
 8.298946e-01, 7.022254e-03, 1.174157e-05
 8.371164e-01, 7.104248e-03, 1.193663e-05
 8.443381e-01, 7.148944e-03, 1.172549e-05
 8.515599e-01, 7.242461e-03, 1.192592e-05
 8.587817e-01, 7.299708e-03, 1.173882e-05
 8.660035e-01, 7.356552e-03, 1.183493e-05
 8.732253e-01, 7.446641e-03, 1.190524e-05
 8.804471e-01, 7.524430e-03, 1.180046e-05
 8.876689e-01, 7.619609e-03, 1.196841e-05
 8.948906e-01, 7.730806e-03, 1.180646e-05
 9.021124e-01, 7.823028e-03, 1.207996e-05
 9.093342e-01, 7.950777e-03, 1.202988e-05
 9.165560e-01, 8.060743e-03, 1.191198e-05
 9.237778e-01, 8.235704e-03, 1.211417e-05
 9.309996e-01, 8.324936e-03, 1.217043e-05
 9.382214e-01, 8.423808e-03, 1.220829e-05
 9.454432e-01, 8.614839e-03, 1.228686e-05
 9.526649e-01, 8.760412e-03, 1.217030e-05
 9.598867e-01, 8.933496e-03, 1.243605e-05
 9.671085e-01, 9.083361e-03, 1.232865e-05
 9.743303e-01, 9.274433e-03, 1.248983e-05
 9.815521e-01, 9.472341e-03, 1.259824e-05
 9.887739e-01, 9.589532e-03, 1.265191e-05
 9.959957e-01, 9.854716e-03, 1.272112e-05
 1.003217e+00, 1.004117e-02, 1.274612e-05
 1.010439e+00, 1.022817e-02, 1.285713e-05
 1.017661e+00, 1.036593e-02, 1.288114e-05
 1.024883e+00, 1.058281e-02, 1.308798e-05
 1.032105e+00, 1.082968e-02, 1.295010e-05
 1.039326e+00, 1.101489e-02, 1.330583e-05
 1.046548e+00, 1.121650e-02, 1.322110e-05
 1.053770e+00, 1.147502e-02, 1.323479e-05
 1.060992e+00, 1.171931e-02, 1.341541e-05
 1.068214e+00, 1.191211e-02, 1.355072e-05
 1.075435e+00, 1.217735e-02, 1.351606e-05
 1.082657e+00, 1.246758e-02, 1.364009e-05
 1.089879e+00, 1.272181e-02, 1.392172e-05
 1.097101e+00, 1.294474e-02, 1.380369e-05
 1.104322e+00, 1.327961e-02, 1.404575e-05
 1.111544e+00, 1.361986e-02, 1.404174e-05
 1.118766e+00, 1.381385e-02, 1.424466e-05
 1.125988e+00, 1.425335e-02, 1.434768e-05
 1.133210e+00, 1.455370e-02, 1.445492e-05
 1.140431e+00, 1.489067e-02, 1.459372e-05
 1.147653e+00, 1.522359e-02, 1.459811e-05
 1.154875e+00, 1.567974e-02, 1.486534e-05
 1.162097e+00, 1.591926e-02, 1.521374e-05
 1.169319e+00, 1.617060e-02, 1.543688e-05
 1.176540e+00, 1.659720e-02, 1.557573e-05
 1.183762e+00, 1.697130e-02, 1.597035e-05
 1.190984e+00, 1.719981e-02, 1.590720e-05
 1.198206e+00, 1.763557e-02, 1.636057e-05
 1.205427e+00, 1.799385e-02, 1.627050e-05
 1.212649e+00, 1.823622e-02, 1.642858e-05
 1.219871e+00, 1.866294e-02, 1.666048e-05
 1.227093e+00, 1.893495e-02, 1.693362e-05
 1.234315e+00, 1.920796e-02, 1.684838e-05
 1.241536e+00, 1.961496e-02, 1.704950e-05
 1.248758e+00, 1.993640e-02, 1.730580e-05
 1.255980e+00, 2.012251e-02, 1.727037e-05
 1.263202e+00, 2.053263e-02, 1.755474e-05
 1.270424e+00, 2.066505e-02, 1.755073e-05
 1.277645e+00, 2.104839e-02, 1.766202e-05
 1.284867e+00, 2.120032e-02, 1.780772e-05
 1.292089e+00, 2.157153e-02, 1.747957e-05
 1.299311e+00, 2.182693e-02, 1.758946e-05
 1.306532e+00, 2.213989e-02, 1.754529e-05
 1.313754e+00, 2.212765e-02, 1.730901e-05
 1.320976e+00, 2.238127e-02, 1.744052e-05
 1.328198e+00, 2.225992e-02, 1.718630e-05
 1.335420e+00, 2.239807e-02, 1.710304e-05
 1.342641e+00, 2.243761e-02, 1.713392e-05
 1.349863e+00, 2.243893e-02, 1.697074e-05
 1.357085e+00, 2.253401e-02, 1.701483e-05
 1.364307e+00, 2.256623e-02, 1.685339e-05
 1.371529e+00, 2.247683e-02, 1.694873e-05
 1.378750e+00, 2.240173e-02, 1.680140e-05
 1.385972e+00, 2.197726e-02, 1.648370e-05
 1.393194e+00, 2.176979e-02, 1.644281e-05
 1.400416e+00, 2.142112e-02, 1.624912e-05
 1.407637e+00, 2.115900e-02, 1.608932e-05
 1.414859e+00, 2.104314e-02, 1.595276e-05
 1.422081e+00, 2.056981e-02, 1.599035e-05
 1.429303e+00, 2.034573e-02, 1.598076e-05
 1.436525e+00, 1.986928e-02, 1.585646e-05
 1.443746e+00, 1.970275e-02, 1.578503e-05
 1.450968e+00, 1.924834e-02, 1.560407e-05
 1.458190e+00, 1.907858e-02, 1.549707e-05
 1.465412e+00, 1.860288e-02, 1.533147e-05
 1.472634e+00, 1.839859e-02, 1.519713e-05
 1.479855e+00, 1.807863e-02, 1.511233e-05
 1.487077e+00, 1.770189e-02, 1.486121e-05
 1.494299e+00, 1.749620e-02, 1.494287e-05
 1.501521e+00, 1.701205e-02, 1.453767e-05
 1.508743e+00, 1.689544e-02, 1.458916e-05
 1.515964e+00, 1.639335e-02, 1.436763e-05
 1.523186e+00, 1.623507e-02, 1.416381e-05
 1.530408e+00, 1.581718e-02, 1.420344e-05
 1.537630e+00, 1.566501e-02, 1.392545e-05
 1.544851e+00, 1.528726e-02, 1.394595e-05
 1.552073e+00, 1.509331e-02, 1.371572e-05
 1.559295e+00, 1.478678e-02, 1.368187e-05
 1.566517e+00, 1.456305e-02, 1.341880e-05
 1.573739e+00, 1.428079e-02, 1.328102e-05
 1.580960e+00, 1.406491e-02, 1.326017e-05
 1.588182e+00, 1.376111e-02, 1.308226e-05
 1.595404e+00, 1.355727e-02, 1.306947e-05
 1.602626e+00, 1.329972e-02, 1.273432e-05
 1.609848e+00, 1.311849e-02, 1.274350e-05
 1.617069e+00, 1.287647e-02, 1.258886e-05
 1.624291e+00, 1.265813e-02, 1.233818e-05
 1.631513e+00, 1.240478e-02, 1.231051e-05
 1.638735e+00, 1.220369e-02, 1.218579e-05
 1.645956e+00, 1.203399e-02, 1.210530e-05
 1.653178e+00, 1.182996e-02, 1.214142e-05
 1.660400e+00, 1.164942e-02, 1.181318e-05
 1.667622e+00, 1.147958e-02, 1.188843e-05
 1.674844e+00, 1.132796e-02, 1.162743e-05
 1.682065e+00, 1.106576e-02, 1.146201e-05
 1.689287e+00, 1.095898e-02, 1.158882e-05
 1.696509e+00, 1.075148e-02, 1.129530e-05
 1.703731e+00, 1.061437e-02, 1.138390e-05
 1.710953e+00, 1.050526e-02, 1.127797e-05
 1.718174e+00, 1.035208e-02, 1.104098e-05
 1.725396e+00, 1.018801e-02, 1.099122e-05
 1.732618e+00, 1.002819e-02, 1.093044e-05
 1.739840e+00, 9.889708e-03, 1.090506e-05
 1.747061e+00, 9.818966e-03, 1.083065e-05
 1.754283e+00, 9.691545e-03, 1.069792e-05
 1.761505e+00, 9.536212e-03, 1.057855e-05
 1.768727e+00, 9.460008e-03, 1.052651e-05
 1.775949e+00, 9.389467e-03, 1.059742e-05
 1.783170e+00, 9.323840e-03, 1.075476e-05
 1.790392e+00, 9.280404e-03, 1.069848e-05
 1.797614e+00, 9.211458e-03, 1.071738e-05
 1.804836e+00, 9.104661e-03, 1.074752e-05
 1.812058e+00, 9.021042e-03, 1.060934e-05
 1.819279e+00, 8.926021e-03, 1.075774e-05
 1.826501e+00, 8.848108e-03, 1.076321e-05
 1.833723e+00, 8.808118e-03, 1.048104e-05
 1.840945e+00, 8.713409e-03, 1.066277e-05
 1.848166e+00, 8.601651e-03, 1.062937e-05
 1.855388e+00, 8.526531e-03, 1.056781e-05
 1.862610e+00, 8.483806e-03, 1.050596e-05
 1.869832e+00, 8.396385e-03, 1.056121e-05
 1.877054e+00, 8.324621e-03, 1.050945e-05
 1.884275e+00, 8.230398e-03, 1.046000e-05
 1.891497e+00, 8.160630e-03, 1.051773e-05
 1.898719e+00, 8.074487e-03, 1.042632e-05
 1.905941e+00, 8.009962e-03, 1.036601e-05
 1.913163e+00, 7.924905e-03, 1.032115e-05
 1.920384e+00, 7.902293e-03, 1.044147e-05
 1.927606e+00, 7.794551e-03, 1.036370e-05
 1.934828e+00, 7.752880e-03, 1.024370e-05
 1.942050e+00, 7.681596e-03, 1.023939e-05
 1.949271e+00, 7.619478e-03, 1.034914e-05
 1.956493e+00, 7.532294e-03, 1.022968e-05
 1.963715e+00, 7.517100e-03, 1.017292e-05
 1.970937e+00, 7.458582e-03, 1.013990e-05
 1.978159e+00, 7.405025e-03, 1.029113e-05
 1.985380e+00, 7.314761e-03, 1.010720e-05
 1.992602e+00, 7.280638e-03, 1.011056e-05
 1.999824e+00, 7.233090e-03, 1.006822e-05
 2.007046e+00, 7.188218e-03, 1.011660e-05
 2.014268e+00, 7.119494e-03, 1.007907e-05
 2.021489e+00, 7.106501e-03, 1.004050e-05
 2.028711e+00, 7.063777e-03, 1.015202e-05
 2.035933e+00, 7.012535e-03, 1.032716e-05
 2.043155e+00, 6.989117e-03, 1.046020e-05
 2.050377e+00, 6.896616e-03, 1.037489e-05
 2.057598e+00, 6.878874e-03, 1.051549e-05
 2.064820e+00, 6.811207e-03, 1.053636e-05
 2.072042e+00, 6.805920e-03, 1.052958e-05
 2.079264e+00, 6.788914e-03, 1.073749e-05
 2.086485e+00, 6.748854e-03, 1.080356e-05
 2.093707e+00, 6.731199e-03, 1.067548e-05
 2.100929e+00, 6.684259e-03, 1.089993e-05
 2.108151e+00, 6.676662e-03, 1.086893e-05
 2.115373e+00, 6.649030e-03, 1.098042e-05
 2.122594e+00, 6.652582e-03, 1.097397e-05
 2.129816e+00, 6.632730e-03, 1.118487e-05
 2.137038e+00, 6.586401e-03, 1.111864e-05
 2.144260e+00, 6.574482e-03, 1.111536e-05
 2.151482e+00, 6.552018e-03, 1.128000e-05
 2.158703e+00, 6.531834e-03, 1.136365e-05
 2.165925e+00, 6.519308e-03, 1.128283e-05
 2.173147e+00, 6.509905e-03, 1.134619e-05
 2.180369e+00, 6.476660e-03, 1.148678e-05
 2.187590e+00, 6.455297e-03, 1.145623e-05
 2.194812e+00, 6.432791e-03, 1.149215e-05
 2.202034e+00, 6.401938e-03, 1.148378e-05
 2.209256e+00, 6.394211e-03, 1.142288e-05
 2.216478e+00, 6.361921e-03, 1.160542e-05
 2.223699e+00, 6.336533e-03, 1.166599e-05
 2.230921e+00, 6.352164e-03, 1.151066e-05
 2.238143e+00, 6.324938e-03, 1.170819e-05
 2.245365e+00, 6.328120e-03, 1.173130e-05
 2.252587e+00, 6.302335e-03, 1.163756e-05
 2.259808e+00, 6.280180e-03, 1.171433e-05
 2.267030e+00, 6.297638e-03, 1.175106e-05
 2.274252e+00, 6.338750e-03, 1.170039e-05
 2.281474e+00, 6.361840e-03, 1.197902e-05
 2.288695e+00, 6.450427e-03, 1.183182e-05
 2.295917e+00, 6.463405e-03, 1.203566e-05
 2.303139e+00, 6.476407e-03, 1.191725e-05
 2.310361e+00, 6.435645e-03, 1.196624e-05
 2.317583e+00, 6.379296e-03, 1.212334e-05
 2.324804e+00, 6.344327e-03, 1.197672e-05
 2.332026e+00, 6.336921e-03, 1.206532e-05
 2.339248e+00, 6.314255e-03, 1.209969e-05
 2.346470e+00, 6.315083e-03, 1.216393e-05
 2.353692e+00, 6.259172e-03, 1.218081e-05
 2.360913e+00, 6.272748e-03, 1.209235e-05
 2.368135e+00, 6.233544e-03, 1.233599e-05
 2.375357e+00, 6.272386e-03, 1.219188e-05
 2.382579e+00, 6.269374e-03, 1.239581e-05
 2.389800e+00, 6.244903e-03, 1.225950e-05
 2.397022e+00, 6.233986e-03, 1.240732e-05
 2.404244e+00, 6.216489e-03, 1.247178e-05
 2.411466e+00, 6.248676e-03, 1.247641e-05
 2.418688e+00, 6.251314e-03, 1.262153e-05
 2.425909e+00, 6.323969e-03, 1.254818e-05
 2.433131e+00, 6.317234e-03, 1.324365e-05
 2.440353e+00, 6.271902e-03, 1.376440e-05
 2.447575e+00, 6.304976e-03, 1.404491e-05
 2.454797e+00, 6.260142e-03, 1.454506e-05
 2.462018e+00, 6.283872e-03, 1.488063e-05
 2.469240e+00, 6.254919e-03, 1.504608e-05
 2.476462e+00, 6.292416e-03, 1.552250e-05
 2.483684e+00, 6.307577e-03, 1.611258e-05
 2.490905e+00, 6.306443e-03, 1.624929e-05
 2.498127e+00, 6.286255e-03, 1.678568e-05
 2.505349e+00, 6.341578e-03, 1.724306e-05
 2.512571e+00, 6.351197e-03, 1.751217e-05
 2.519793e+00, 6.316469e-03, 1.790777e-05
 2.527014e+00, 6.344953e-03, 1.812777e-05
 2.534236e+00, 6.329942e-03, 1.855012e-05
 2.541458e+00, 6.308636e-03, 1.908818e-05
 2.548680e+00, 6.310477e-03, 1.903442e-05
 2.555902e+00, 6.310358e-03, 2.004976e-05
 2.563123e+00, 6.293097e-03, 1.987272e-05
 2.570345e+00, 6.302151e-03, 2.043312e-05
 2.577567e+00, 6.294180e-03, 2.088372e-05
 2.584789e+00, 6.289083e-03, 2.167181e-05
 2.592011e+00, 6.331615e-03, 2.200216e-05
 2.599232e+00, 6.339514e-03, 2.228070e-05
 2.606454e+00, 6.337577e-03, 2.274281e-05
 2.613676e+00, 6.310680e-03, 2.401461e-05
 2.620898e+00, 6.316058e-03, 2.412274e-05
 2.628119e+00, 6.288671e-03, 2.510732e-05
 2.635341e+00, 6.306099e-03, 2.509226e-05
 2.642563e+00, 6.319722e-03, 2.677031e-05
 2.649785e+00, 6.318908e-03, 2.708139e-05
 2.657007e+00, 6.242579e-03, 2.785228e-05
 2.664228e+00, 6.274462e-03, 2.827338e-05
 2.671450e+00, 6.301543e-03, 2.908325e-05
 2.678672e+00, 6.208394e-03, 2.958190e-05
 2.685894e+00, 6.235390e-03, 2.996883e-05
 2.693116e+00, 6.238852e-03, 3.057930e-05
 2.700337e+00, 6.238762e-03, 3.111728e-05
 2.707559e+00, 6.128090e-03, 3.170244e-05
 2.714781e+00, 6.224760e-03, 3.255692e-05
 2.722003e+00, 6.221987e-03, 3.330124e-05
 2.729224e+00, 6.154318e-03, 3.379148e-05
 2.736446e+00, 6.132844e-03, 3.496954e-05
 2.743668e+00, 6.134044e-03, 3.561012e-05
 2.750890e+00, 6.128970e-03, 3.656627e-05
 2.758112e+00, 6.085084e-03, 3.781306e-05
 2.765333e+00, 6.021290e-03, 3.840049e-05
 2.772555e+00, 6.147781e-03, 4.003137e-05
 2.779777e+00, 6.051032e-03, 4.083226e-05
 2.786999e+00, 6.078348e-03, 4.334055e-05
 2.794221e+00, 6.065537e-03, 4.444362e-05
 2.801442e+00, 6.032404e-03, 4.584762e-05
 2.808664e+00, 5.928726e-03, 4.848224e-05
 2.815886e+00, 6.046457e-03, 5.058955e-05
 2.823108e+00, 6.037026e-03, 5.466115e-05
 2.830329e+00, 6.040600e-03, 5.748522e-05
 2.837551e+00, 6.036603e-03, 6.072230e-05
 2.844773e+00, 6.007565e-03, 6.608107e-05
 2.851995e+00, 6.342899e-03, 7.536132e-05
 2.859217e+00, 6.177370e-03, 8.473288e-05
 2.866438e+00, 6.137633e-03, 9.515995e-05
 2.873660e+00, 6.553863e-03, 1.295574e-04
 2.880882e+00, 7.781382e-03, 1.916225e-04
 2.888104e+00, NaN, NaN
#HEADERS
"latest_0021228_caz","KF LIPNOR2 DRY 68, conf 21, I0=21, trans=25941048.431906, time=1800"
