1,"Number of Datasets"
3,"Number of Columns per Dataset"
400,"Maximum Number of Rows for Any Dataset"
#DATASETS q-units: Angstrom I-units: Absolute intensity(cm^-1) X thickness(cm) 
"latest_0021288_caz","KF LIPNOR2 h2oON 32, conf 22, I0=22, trans=15624207.385318, time=1800","",
q,I,dI,
 3.944325e-03, NaN, NaN
 5.832974e-03, NaN, NaN
 7.721623e-03, NaN, NaN
 9.610272e-03, NaN, NaN
 1.149892e-02, NaN, NaN
 1.338757e-02, 2.699731e-01, 3.280424e-03
 1.527622e-02, 2.025685e-01, 2.231424e-03
 1.716487e-02, 1.612261e-01, 1.942765e-03
 1.905352e-02, 1.375159e-01, 1.602275e-03
 2.094217e-02, 1.200612e-01, 1.497144e-03
 2.283082e-02, 1.113149e-01, 1.300972e-03
 2.471947e-02, 1.047441e-01, 1.196002e-03
 2.660811e-02, 1.060561e-01, 1.203474e-03
 2.849676e-02, 1.073660e-01, 1.163385e-03
 3.038541e-02, 1.151139e-01, 1.156238e-03
 3.227406e-02, 1.234753e-01, 1.183603e-03
 3.416271e-02, 1.349489e-01, 1.151938e-03
 3.605136e-02, 1.407262e-01, 1.160966e-03
 3.794001e-02, 1.425918e-01, 1.129017e-03
 3.982866e-02, 1.425496e-01, 1.118733e-03
 4.171731e-02, 1.329714e-01, 1.077301e-03
 4.360596e-02, 1.228714e-01, 9.844847e-04
 4.549461e-02, 1.148287e-01, 9.179832e-04
 4.738326e-02, 1.020982e-01, 8.468575e-04
 4.927190e-02, 9.189755e-02, 8.073000e-04
 5.116055e-02, 8.287241e-02, 7.488504e-04
 5.304920e-02, 7.452260e-02, 6.974483e-04
 5.493785e-02, 7.022852e-02, 6.625627e-04
 5.682650e-02, 6.455762e-02, 6.159809e-04
 5.871515e-02, 6.078081e-02, 5.872610e-04
 6.060380e-02, 5.797438e-02, 5.780123e-04
 6.249245e-02, 5.523393e-02, 5.778986e-04
 6.438110e-02, 5.491669e-02, 5.834612e-04
 6.626975e-02, 5.291725e-02, 5.533267e-04
 6.815840e-02, 5.325202e-02, 5.628599e-04
 7.004705e-02, 5.205273e-02, 5.456010e-04
 7.193569e-02, 5.013269e-02, 5.333868e-04
 7.382434e-02, 4.962930e-02, 5.390669e-04
 7.571299e-02, 4.743801e-02, 5.239291e-04
 7.760164e-02, 4.605558e-02, 5.064111e-04
 7.949029e-02, 4.484141e-02, 4.896390e-04
 8.137894e-02, 4.232483e-02, 4.809640e-04
 8.326759e-02, 4.212145e-02, 4.711677e-04
 8.515624e-02, 4.050639e-02, 4.645485e-04
 8.704489e-02, 4.194670e-02, 4.770677e-04
 8.893354e-02, 4.097307e-02, 4.598204e-04
 9.082219e-02, 4.190033e-02, 4.617835e-04
 9.271084e-02, 4.200846e-02, 4.429557e-04
 9.459948e-02, 4.269902e-02, 4.231360e-04
 9.648813e-02, 4.161645e-02, 4.288533e-04
 9.837678e-02, 4.173650e-02, 4.136790e-04
 1.002654e-01, 4.083992e-02, 4.058504e-04
 1.021541e-01, 4.018260e-02, 3.993182e-04
 1.040427e-01, 3.951765e-02, 3.785973e-04
 1.059314e-01, 3.890135e-02, 3.765666e-04
 1.078200e-01, 3.868834e-02, 3.737001e-04
 1.097087e-01, 3.824174e-02, 3.675222e-04
 1.115973e-01, 3.843675e-02, 3.658487e-04
 1.134860e-01, 3.847712e-02, 3.601502e-04
 1.153746e-01, 3.900352e-02, 3.546068e-04
 1.172633e-01, 3.969911e-02, 3.535415e-04
 1.191519e-01, 3.975210e-02, 3.522854e-04
 1.210406e-01, 4.096672e-02, 3.568806e-04
 1.229292e-01, 4.156963e-02, 3.554128e-04
 1.248179e-01, 4.110743e-02, 3.484556e-04
 1.267065e-01, 4.283697e-02, 3.484754e-04
 1.285952e-01, 4.206181e-02, 3.466489e-04
 1.304838e-01, 4.344181e-02, 3.453532e-04
 1.323725e-01, 4.357416e-02, 3.468551e-04
 1.342611e-01, 4.328346e-02, 3.457040e-04
 1.361498e-01, 4.285879e-02, 3.309682e-04
 1.380384e-01, 4.218572e-02, 3.330083e-04
 1.399271e-01, 4.027104e-02, 3.219521e-04
 1.418157e-01, 3.810427e-02, 3.063179e-04
 1.437044e-01, 3.456566e-02, 2.957248e-04
 1.455930e-01, 3.107942e-02, 2.766580e-04
 1.474817e-01, 2.790600e-02, 2.587329e-04
 1.493703e-01, 2.543406e-02, 2.470141e-04
 1.512590e-01, 2.278737e-02, 2.286754e-04
 1.531476e-01, 2.109342e-02, 2.228027e-04
 1.550363e-01, 1.942877e-02, 2.095424e-04
 1.569249e-01, 1.774842e-02, 2.012065e-04
 1.588136e-01, 1.698985e-02, 1.959599e-04
 1.607022e-01, 1.567157e-02, 1.845758e-04
 1.625909e-01, 1.489008e-02, 1.783530e-04
 1.644795e-01, 1.382397e-02, 1.713598e-04
 1.663682e-01, 1.318959e-02, 1.673865e-04
 1.682568e-01, 1.272752e-02, 1.634961e-04
 1.701455e-01, 1.207156e-02, 1.587813e-04
 1.720341e-01, 1.195119e-02, 1.553807e-04
 1.739227e-01, 1.104157e-02, 1.481456e-04
 1.758114e-01, 1.080555e-02, 1.455830e-04
 1.777000e-01, 1.030857e-02, 1.444197e-04
 1.795887e-01, 1.004295e-02, 1.405468e-04
 1.814773e-01, 1.010391e-02, 1.406036e-04
 1.833660e-01, 9.616289e-03, 1.339347e-04
 1.852546e-01, 9.645172e-03, 1.348217e-04
 1.871433e-01, 9.343252e-03, 1.320280e-04
 1.890319e-01, 8.916341e-03, 1.285758e-04
 1.909206e-01, 8.792793e-03, 1.276061e-04
 1.928092e-01, 8.755554e-03, 1.267856e-04
 1.946979e-01, 8.588115e-03, 1.230773e-04
 1.965865e-01, 8.489995e-03, 1.234851e-04
 1.984752e-01, 8.362935e-03, 1.213167e-04
 2.003638e-01, 8.100813e-03, 1.187705e-04
 2.022525e-01, 8.168322e-03, 1.190586e-04
 2.041411e-01, 8.177317e-03, 1.187115e-04
 2.060298e-01, 8.004461e-03, 1.171817e-04
 2.079184e-01, 8.003659e-03, 1.149377e-04
 2.098071e-01, 7.929317e-03, 1.152449e-04
 2.116957e-01, 7.754835e-03, 1.127685e-04
 2.135844e-01, 7.912737e-03, 1.135384e-04
 2.154730e-01, 7.775236e-03, 1.136191e-04
 2.173617e-01, 7.691048e-03, 1.116993e-04
 2.192503e-01, 7.503088e-03, 1.074835e-04
 2.211390e-01, 7.738236e-03, 1.095009e-04
 2.230276e-01, 7.641778e-03, 1.096843e-04
 2.249163e-01, 7.632816e-03, 1.092187e-04
 2.268049e-01, 7.723099e-03, 1.088949e-04
 2.286936e-01, 7.622342e-03, 1.077962e-04
 2.305822e-01, 7.243025e-03, 1.037580e-04
 2.324709e-01, 7.499679e-03, 1.049548e-04
 2.343595e-01, 7.328332e-03, 1.047439e-04
 2.362482e-01, 7.303494e-03, 1.038388e-04
 2.381368e-01, 6.982531e-03, 1.006375e-04
 2.400255e-01, 6.813914e-03, 9.985967e-05
 2.419141e-01, 6.585018e-03, 9.638102e-05
 2.438028e-01, 6.431732e-03, 9.485133e-05
 2.456914e-01, 6.367589e-03, 9.542204e-05
 2.475801e-01, 6.351666e-03, 9.426701e-05
 2.494687e-01, 6.237395e-03, 9.298159e-05
 2.513574e-01, 6.171661e-03, 9.227894e-05
 2.532460e-01, 6.260526e-03, 9.255829e-05
 2.551347e-01, 6.295262e-03, 9.462549e-05
 2.570233e-01, 6.287287e-03, 9.363176e-05
 2.589120e-01, 6.185478e-03, 9.490323e-05
 2.608006e-01, 6.108068e-03, 9.449735e-05
 2.626893e-01, 6.180497e-03, 9.510708e-05
 2.645779e-01, 6.031596e-03, 9.246609e-05
 2.664666e-01, 6.264935e-03, 9.469527e-05
 2.683552e-01, 6.141107e-03, 9.412280e-05
 2.702439e-01, 6.189819e-03, 9.514920e-05
 2.721325e-01, 6.274381e-03, 9.547271e-05
 2.740212e-01, 6.212644e-03, 9.528640e-05
 2.759098e-01, 6.319559e-03, 9.409150e-05
 2.777985e-01, 6.270497e-03, 9.527035e-05
 2.796871e-01, 6.441948e-03, 9.685223e-05
 2.815758e-01, 6.432909e-03, 9.613142e-05
 2.834644e-01, 6.200535e-03, 9.433814e-05
 2.853530e-01, 6.266684e-03, 9.254822e-05
 2.872417e-01, 6.412479e-03, 9.231607e-05
 2.891303e-01, 6.234745e-03, 9.099152e-05
 2.910190e-01, 6.237844e-03, 8.997930e-05
 2.929076e-01, 6.325674e-03, 9.018291e-05
 2.947963e-01, 6.202295e-03, 8.965325e-05
 2.966849e-01, 5.980145e-03, 8.657790e-05
 2.985736e-01, 6.107568e-03, 8.687942e-05
 3.004622e-01, 6.077987e-03, 8.649365e-05
 3.023509e-01, 5.954248e-03, 8.536611e-05
 3.042395e-01, 6.046990e-03, 8.617479e-05
 3.061282e-01, 5.948162e-03, 8.460333e-05
 3.080168e-01, 5.831225e-03, 8.280617e-05
 3.099055e-01, 5.998949e-03, 8.409282e-05
 3.117941e-01, 5.896232e-03, 8.307849e-05
 3.136828e-01, 5.811381e-03, 8.180987e-05
 3.155714e-01, 5.936797e-03, 8.475088e-05
 3.174601e-01, 5.652858e-03, 8.256968e-05
 3.193487e-01, 5.772789e-03, 8.264571e-05
 3.212374e-01, 5.887414e-03, 8.472196e-05
 3.231260e-01, 5.780687e-03, 8.368146e-05
 3.250147e-01, 5.781037e-03, 8.318254e-05
 3.269033e-01, 5.570517e-03, 8.222221e-05
 3.287920e-01, 5.754197e-03, 8.336790e-05
 3.306806e-01, 5.720322e-03, 8.200389e-05
 3.325693e-01, 5.917553e-03, 8.438162e-05
 3.344579e-01, 5.684105e-03, 8.280555e-05
 3.363466e-01, 5.816130e-03, 8.276726e-05
 3.382352e-01, 5.825489e-03, 8.418020e-05
 3.401239e-01, 5.845640e-03, 8.388662e-05
 3.420125e-01, 5.912296e-03, 8.356236e-05
 3.439012e-01, 6.170293e-03, 8.557479e-05
 3.457898e-01, 5.994261e-03, 8.448490e-05
 3.476785e-01, 6.252357e-03, 8.667127e-05
 3.495671e-01, 6.105713e-03, 8.541338e-05
 3.514558e-01, 6.089617e-03, 8.446404e-05
 3.533444e-01, 6.175680e-03, 8.550162e-05
 3.552331e-01, 6.390753e-03, 8.626706e-05
 3.571217e-01, 6.560342e-03, 8.809996e-05
 3.590104e-01, 6.342837e-03, 8.670128e-05
 3.608990e-01, 6.608613e-03, 8.726571e-05
 3.627877e-01, 6.947742e-03, 8.982981e-05
 3.646763e-01, 7.020537e-03, 9.055177e-05
 3.665650e-01, 6.987471e-03, 8.937021e-05
 3.684536e-01, 7.044220e-03, 8.987578e-05
 3.703423e-01, 7.375367e-03, 9.257621e-05
 3.722309e-01, 7.457777e-03, 9.248812e-05
 3.741196e-01, 7.679469e-03, 9.396702e-05
 3.760082e-01, 7.858152e-03, 9.430084e-05
 3.778969e-01, 7.888004e-03, 9.416541e-05
 3.797855e-01, 8.273578e-03, 9.747798e-05
 3.816742e-01, 8.256164e-03, 9.723232e-05
 3.835628e-01, 8.495811e-03, 9.789256e-05
 3.854515e-01, 8.449916e-03, 9.676181e-05
 3.873401e-01, 8.794932e-03, 1.002210e-04
 3.892288e-01, 8.922986e-03, 9.966862e-05
 3.911174e-01, 9.089491e-03, 1.008264e-04
 3.930061e-01, 9.170934e-03, 1.017800e-04
 3.948947e-01, 9.257569e-03, 1.015783e-04
 3.967833e-01, 9.259117e-03, 1.006604e-04
 3.986720e-01, 9.224197e-03, 1.020573e-04
 4.005606e-01, 9.379785e-03, 1.011801e-04
 4.024493e-01, 9.325155e-03, 1.013364e-04
 4.043379e-01, 9.359512e-03, 1.018301e-04
 4.062266e-01, 9.254650e-03, 1.021383e-04
 4.081152e-01, 8.978590e-03, 1.007242e-04
 4.100039e-01, 8.749781e-03, 1.010540e-04
 4.118925e-01, 8.555219e-03, 1.004413e-04
 4.137812e-01, 8.512851e-03, 1.003179e-04
 4.156698e-01, 8.308432e-03, 9.876304e-05
 4.175585e-01, 7.930704e-03, 9.653661e-05
 4.194471e-01, 7.541482e-03, 9.511949e-05
 4.213358e-01, 7.362535e-03, 9.357979e-05
 4.232244e-01, 7.155800e-03, 9.353387e-05
 4.251131e-01, 7.279339e-03, 9.324826e-05
 4.270017e-01, 6.888640e-03, 9.152369e-05
 4.288904e-01, 6.712667e-03, 9.039041e-05
 4.307790e-01, 6.576376e-03, 8.940213e-05
 4.326677e-01, 6.563073e-03, 8.982929e-05
 4.345563e-01, 6.453041e-03, 8.978158e-05
 4.364450e-01, 6.218547e-03, 8.727409e-05
 4.383336e-01, 6.120275e-03, 8.705137e-05
 4.402223e-01, 6.053087e-03, 8.657875e-05
 4.421109e-01, 5.928533e-03, 8.590273e-05
 4.439996e-01, 5.996481e-03, 8.727291e-05
 4.458882e-01, 5.852574e-03, 8.622591e-05
 4.477769e-01, 6.168826e-03, 8.757379e-05
 4.496655e-01, 5.833711e-03, 8.555889e-05
 4.515542e-01, 5.799852e-03, 8.549558e-05
 4.534428e-01, 5.566423e-03, 8.447559e-05
 4.553315e-01, 5.656889e-03, 8.549482e-05
 4.572201e-01, 5.579025e-03, 8.390697e-05
 4.591088e-01, 5.841204e-03, 8.681547e-05
 4.609974e-01, 5.614787e-03, 8.433046e-05
 4.628861e-01, 5.708600e-03, 8.550831e-05
 4.647747e-01, 5.655927e-03, 8.570570e-05
 4.666634e-01, 5.547872e-03, 8.452566e-05
 4.685520e-01, 5.640516e-03, 8.593716e-05
 4.704407e-01, 5.426869e-03, 8.301031e-05
 4.723293e-01, 5.681233e-03, 8.581375e-05
 4.742180e-01, 5.475881e-03, 8.570724e-05
 4.761066e-01, 5.452958e-03, 8.738445e-05
 4.779953e-01, 5.494172e-03, 8.821499e-05
 4.798839e-01, 5.360159e-03, 8.697615e-05
 4.817726e-01, 5.384586e-03, 8.839076e-05
 4.836612e-01, 5.363778e-03, 8.861210e-05
 4.855499e-01, 5.433135e-03, 9.033920e-05
 4.874385e-01, 5.298879e-03, 8.931259e-05
 4.893272e-01, 5.308090e-03, 9.048904e-05
 4.912158e-01, 5.229479e-03, 8.987004e-05
 4.931045e-01, 5.514546e-03, 9.243699e-05
 4.949931e-01, 5.404991e-03, 9.306510e-05
 4.968818e-01, 5.310359e-03, 9.314986e-05
 4.987704e-01, 5.322334e-03, 9.286123e-05
 5.006591e-01, 5.271334e-03, 9.272245e-05
 5.025477e-01, 5.443481e-03, 9.542628e-05
 5.044364e-01, 5.304073e-03, 9.462511e-05
 5.063250e-01, 5.324398e-03, 9.578363e-05
 5.082137e-01, 5.105229e-03, 9.412260e-05
 5.101023e-01, 5.231575e-03, 9.485339e-05
 5.119909e-01, 5.146574e-03, 9.585084e-05
 5.138796e-01, 5.359049e-03, 9.662612e-05
 5.157682e-01, 5.151465e-03, 9.546300e-05
 5.176569e-01, 5.344892e-03, 9.930353e-05
 5.195455e-01, 5.321466e-03, 9.849501e-05
 5.214342e-01, 5.343031e-03, 9.753370e-05
 5.233228e-01, 5.424856e-03, 1.002542e-04
 5.252115e-01, 5.181199e-03, 9.840873e-05
 5.271001e-01, 5.193528e-03, 9.799110e-05
 5.289888e-01, 5.348693e-03, 1.010087e-04
 5.308774e-01, 5.303606e-03, 9.898164e-05
 5.327661e-01, 5.368182e-03, 1.014672e-04
 5.346547e-01, 5.266810e-03, 1.000709e-04
 5.365434e-01, 5.448058e-03, 1.019799e-04
 5.384320e-01, 5.088792e-03, 1.000305e-04
 5.403207e-01, 5.061981e-03, 9.900741e-05
 5.422093e-01, 5.153089e-03, 9.858873e-05
 5.440980e-01, 5.425950e-03, 1.028535e-04
 5.459866e-01, 5.332128e-03, 1.015137e-04
 5.478753e-01, 5.271871e-03, 1.015324e-04
 5.497639e-01, 5.138678e-03, 1.003158e-04
 5.516526e-01, 5.339767e-03, 1.012927e-04
 5.535412e-01, 5.364259e-03, 1.027794e-04
 5.554299e-01, 5.229648e-03, 1.019558e-04
 5.573185e-01, 5.287452e-03, 1.021933e-04
 5.592072e-01, 5.229026e-03, 1.023726e-04
 5.610958e-01, 5.272880e-03, 1.031521e-04
 5.629845e-01, 5.023768e-03, 1.004955e-04
 5.648731e-01, 5.210925e-03, 1.027694e-04
 5.667618e-01, 5.320570e-03, 1.053423e-04
 5.686504e-01, 5.143235e-03, 1.020515e-04
 5.705391e-01, 5.487618e-03, 1.073736e-04
 5.724277e-01, 5.004524e-03, 1.026907e-04
 5.743164e-01, 5.282115e-03, 1.033130e-04
 5.762050e-01, 5.071162e-03, 1.035362e-04
 5.780937e-01, 5.391278e-03, 1.082813e-04
 5.799823e-01, 5.384042e-03, 1.067036e-04
 5.818710e-01, 5.166049e-03, 1.038835e-04
 5.837596e-01, 5.310900e-03, 1.068179e-04
 5.856483e-01, 5.335606e-03, 1.070768e-04
 5.875369e-01, 5.302948e-03, 1.077532e-04
 5.894256e-01, 5.247608e-03, 1.075881e-04
 5.913142e-01, 5.059070e-03, 1.051920e-04
 5.932029e-01, 5.081192e-03, 1.049063e-04
 5.950915e-01, 5.415418e-03, 1.139646e-04
 5.969802e-01, 5.308897e-03, 1.151391e-04
 5.988688e-01, 5.331135e-03, 1.192675e-04
 6.007575e-01, 5.312523e-03, 1.221028e-04
 6.026461e-01, 5.334677e-03, 1.248070e-04
 6.045348e-01, 5.041450e-03, 1.233665e-04
 6.064234e-01, 5.101357e-03, 1.257392e-04
 6.083121e-01, 5.555195e-03, 1.346937e-04
 6.102007e-01, 5.320283e-03, 1.350482e-04
 6.120894e-01, 5.084805e-03, 1.329389e-04
 6.139780e-01, 5.354199e-03, 1.399821e-04
 6.158667e-01, 5.102972e-03, 1.376670e-04
 6.177553e-01, 5.020992e-03, 1.405608e-04
 6.196440e-01, 5.176697e-03, 1.448063e-04
 6.215326e-01, 5.017420e-03, 1.463109e-04
 6.234212e-01, 5.127634e-03, 1.471055e-04
 6.253099e-01, 5.418496e-03, 1.542486e-04
 6.271985e-01, 5.015797e-03, 1.540590e-04
 6.290872e-01, 4.854063e-03, 1.497283e-04
 6.309758e-01, 5.170833e-03, 1.579295e-04
 6.328645e-01, 5.186644e-03, 1.628799e-04
 6.347531e-01, 5.414837e-03, 1.656138e-04
 6.366418e-01, 5.463015e-03, 1.694824e-04
 6.385304e-01, 5.088161e-03, 1.695112e-04
 6.404191e-01, 5.304706e-03, 1.718363e-04
 6.423077e-01, 5.101688e-03, 1.707215e-04
 6.441964e-01, 5.325012e-03, 1.839495e-04
 6.460850e-01, 5.573899e-03, 1.840664e-04
 6.479737e-01, 4.919182e-03, 1.764747e-04
 6.498623e-01, 5.390676e-03, 1.911876e-04
 6.517510e-01, 5.453052e-03, 1.962596e-04
 6.536396e-01, 5.225028e-03, 1.895317e-04
 6.555283e-01, 5.336813e-03, 2.012817e-04
 6.574169e-01, 5.416832e-03, 2.091145e-04
 6.593056e-01, 5.400609e-03, 2.045627e-04
 6.611942e-01, 4.782605e-03, 2.019217e-04
 6.630829e-01, 5.032967e-03, 2.119262e-04
 6.649715e-01, 4.949788e-03, 2.089802e-04
 6.668602e-01, 5.389207e-03, 2.295879e-04
 6.687488e-01, 5.410911e-03, 2.330644e-04
 6.706375e-01, 5.619320e-03, 2.407052e-04
 6.725261e-01, 5.540588e-03, 2.448617e-04
 6.744148e-01, 5.851598e-03, 2.534608e-04
 6.763034e-01, 5.498600e-03, 2.484014e-04
 6.781921e-01, 5.784206e-03, 2.615708e-04
 6.800807e-01, 5.596261e-03, 2.573163e-04
 6.819694e-01, 5.372352e-03, 2.561168e-04
 6.838580e-01, 5.629478e-03, 2.686803e-04
 6.857467e-01, 4.839266e-03, 2.512422e-04
 6.876353e-01, 4.980074e-03, 2.582048e-04
 6.895240e-01, 5.224679e-03, 2.680204e-04
 6.914126e-01, 5.052671e-03, 2.696916e-04
 6.933013e-01, 5.595727e-03, 2.851847e-04
 6.951899e-01, 5.603679e-03, 2.953398e-04
 6.970786e-01, 5.286942e-03, 2.854680e-04
 6.989672e-01, 5.773379e-03, 3.077221e-04
 7.008559e-01, 5.397448e-03, 3.041117e-04
 7.027445e-01, 5.672980e-03, 3.118152e-04
 7.046332e-01, 5.595255e-03, 3.225052e-04
 7.065218e-01, 5.469762e-03, 3.268808e-04
 7.084105e-01, 5.069211e-03, 3.108133e-04
 7.102991e-01, 5.837630e-03, 3.513840e-04
 7.121878e-01, 5.362468e-03, 3.391523e-04
 7.140764e-01, 5.134095e-03, 3.415149e-04
 7.159651e-01, 4.804464e-03, 3.405794e-04
 7.178537e-01, 5.961360e-03, 3.824214e-04
 7.197424e-01, 5.234439e-03, 3.767831e-04
 7.216310e-01, 5.805437e-03, 3.968515e-04
 7.235197e-01, 6.543709e-03, 4.411767e-04
 7.254083e-01, 5.464165e-03, 4.241014e-04
 7.272970e-01, 5.333839e-03, 4.190660e-04
 7.291856e-01, 5.638640e-03, 4.558571e-04
 7.310743e-01, 5.664342e-03, 4.624916e-04
 7.329629e-01, 5.265396e-03, 4.826781e-04
 7.348515e-01, 5.351228e-03, 5.011884e-04
 7.367402e-01, 5.098139e-03, 5.047910e-04
 7.386288e-01, 5.108700e-03, 5.415212e-04
 7.405175e-01, 6.470515e-03, 6.603942e-04
 7.424061e-01, 4.947235e-03, 6.044009e-04
 7.442948e-01, 5.224506e-03, 6.530633e-04
 7.461834e-01, 5.585133e-03, 7.600404e-04
 7.480721e-01, 4.796558e-03, 8.226029e-04
 7.499607e-01, 6.381392e-03, 1.049094e-03
 7.518494e-01, 5.434221e-03, 1.185844e-03
 7.537380e-01, 6.729839e-03, 1.866522e-03
 7.556267e-01, NaN, NaN
 7.575153e-01, NaN, NaN
#HEADERS
"latest_0021288_caz","KF LIPNOR2 h2oON 32, conf 22, I0=22, trans=15624207.385318, time=1800"
