1,"Number of Datasets"
3,"Number of Columns per Dataset"
400,"Maximum Number of Rows for Any Dataset"
#DATASETS q-units: Angstrom I-units: Absolute intensity(cm^-1) X thickness(cm) 
"latest_0021290_caz","KF LIPNOR2 h2oON 45, conf 22, I0=22, trans=15638145.569884, time=1800","",
q,I,dI,
 3.944325e-03, NaN, NaN
 5.832974e-03, NaN, NaN
 7.721623e-03, NaN, NaN
 9.610272e-03, NaN, NaN
 1.149892e-02, NaN, NaN
 1.338757e-02, 3.702913e-01, 3.841601e-03
 1.527622e-02, 2.733238e-01, 2.591824e-03
 1.716487e-02, 2.149704e-01, 2.243173e-03
 1.905352e-02, 1.844250e-01, 1.855416e-03
 2.094217e-02, 1.633890e-01, 1.746402e-03
 2.283082e-02, 1.562699e-01, 1.541345e-03
 2.471947e-02, 1.510325e-01, 1.436062e-03
 2.660811e-02, 1.557583e-01, 1.458362e-03
 2.849676e-02, 1.633907e-01, 1.435075e-03
 3.038541e-02, 1.739018e-01, 1.421039e-03
 3.227406e-02, 1.830611e-01, 1.441068e-03
 3.416271e-02, 1.903129e-01, 1.367884e-03
 3.605136e-02, 1.881491e-01, 1.342314e-03
 3.794001e-02, 1.799520e-01, 1.268243e-03
 3.982866e-02, 1.678394e-01, 1.213839e-03
 4.171731e-02, 1.609754e-01, 1.185246e-03
 4.360596e-02, 1.539216e-01, 1.101803e-03
 4.549461e-02, 1.448171e-01, 1.030838e-03
 4.738326e-02, 1.263009e-01, 9.418365e-04
 4.927190e-02, 1.084356e-01, 8.768790e-04
 5.116055e-02, 9.362571e-02, 7.958999e-04
 5.304920e-02, 8.139799e-02, 7.288625e-04
 5.493785e-02, 7.413784e-02, 6.807082e-04
 5.682650e-02, 7.090157e-02, 6.454940e-04
 5.871515e-02, 6.686011e-02, 6.158887e-04
 6.060380e-02, 6.676528e-02, 6.202477e-04
 6.249245e-02, 6.570955e-02, 6.302803e-04
 6.438110e-02, 6.682212e-02, 6.435625e-04
 6.626975e-02, 6.484470e-02, 6.124788e-04
 6.815840e-02, 6.537381e-02, 6.235983e-04
 7.004705e-02, 6.574619e-02, 6.131397e-04
 7.193569e-02, 6.656979e-02, 6.145981e-04
 7.382434e-02, 6.602103e-02, 6.217067e-04
 7.571299e-02, 6.503191e-02, 6.133994e-04
 7.760164e-02, 6.119875e-02, 5.837195e-04
 7.949029e-02, 5.856879e-02, 5.595517e-04
 8.137894e-02, 5.554387e-02, 5.509393e-04
 8.326759e-02, 5.063168e-02, 5.165423e-04
 8.515624e-02, 4.684003e-02, 4.995151e-04
 8.704489e-02, 4.450168e-02, 4.913490e-04
 8.893354e-02, 4.318105e-02, 4.720156e-04
 9.082219e-02, 4.215422e-02, 4.631493e-04
 9.271084e-02, 4.153580e-02, 4.404271e-04
 9.459948e-02, 4.080660e-02, 4.136253e-04
 9.648813e-02, 4.048409e-02, 4.229502e-04
 9.837678e-02, 3.886109e-02, 3.991478e-04
 1.002654e-01, 3.865278e-02, 3.948068e-04
 1.021541e-01, 3.714585e-02, 3.839070e-04
 1.040427e-01, 3.752856e-02, 3.689213e-04
 1.059314e-01, 3.721591e-02, 3.682939e-04
 1.078200e-01, 3.889608e-02, 3.746769e-04
 1.097087e-01, 3.950091e-02, 3.734987e-04
 1.115973e-01, 4.060768e-02, 3.760131e-04
 1.134860e-01, 4.263800e-02, 3.790980e-04
 1.153746e-01, 4.397863e-02, 3.765189e-04
 1.172633e-01, 4.584191e-02, 3.798851e-04
 1.191519e-01, 4.674528e-02, 3.819921e-04
 1.210406e-01, 4.791190e-02, 3.859222e-04
 1.229292e-01, 4.754342e-02, 3.800678e-04
 1.248179e-01, 4.840555e-02, 3.780992e-04
 1.267065e-01, 4.768093e-02, 3.676258e-04
 1.285952e-01, 4.775485e-02, 3.693392e-04
 1.304838e-01, 4.668893e-02, 3.580035e-04
 1.323725e-01, 4.735865e-02, 3.615796e-04
 1.342611e-01, 4.706264e-02, 3.604561e-04
 1.361498e-01, 4.501752e-02, 3.391782e-04
 1.380384e-01, 4.235352e-02, 3.336474e-04
 1.399271e-01, 3.904577e-02, 3.169951e-04
 1.418157e-01, 3.570841e-02, 2.965115e-04
 1.437044e-01, 3.112818e-02, 2.806164e-04
 1.455930e-01, 2.837401e-02, 2.643248e-04
 1.474817e-01, 2.619928e-02, 2.506792e-04
 1.493703e-01, 2.415215e-02, 2.406925e-04
 1.512590e-01, 2.233688e-02, 2.263886e-04
 1.531476e-01, 2.114941e-02, 2.230832e-04
 1.550363e-01, 2.005886e-02, 2.128987e-04
 1.569249e-01, 1.934935e-02, 2.100710e-04
 1.588136e-01, 1.861468e-02, 2.051025e-04
 1.607022e-01, 1.738443e-02, 1.943881e-04
 1.625909e-01, 1.665670e-02, 1.886242e-04
 1.644795e-01, 1.595659e-02, 1.840914e-04
 1.663682e-01, 1.530331e-02, 1.802886e-04
 1.682568e-01, 1.445198e-02, 1.742088e-04
 1.701455e-01, 1.411848e-02, 1.717048e-04
 1.720341e-01, 1.351297e-02, 1.652105e-04
 1.739227e-01, 1.289434e-02, 1.600825e-04
 1.758114e-01, 1.235147e-02, 1.556386e-04
 1.777000e-01, 1.224522e-02, 1.573915e-04
 1.795887e-01, 1.213606e-02, 1.544898e-04
 1.814773e-01, 1.161872e-02, 1.507653e-04
 1.833660e-01, 1.127874e-02, 1.450409e-04
 1.852546e-01, 1.113436e-02, 1.448466e-04
 1.871433e-01, 1.083619e-02, 1.421759e-04
 1.890319e-01, 1.084129e-02, 1.417677e-04
 1.909206e-01, 1.049512e-02, 1.394032e-04
 1.928092e-01, 1.015133e-02, 1.365087e-04
 1.946979e-01, 9.858514e-03, 1.318577e-04
 1.965865e-01, 9.767478e-03, 1.324411e-04
 1.984752e-01, 1.001235e-02, 1.327333e-04
 2.003638e-01, 9.520483e-03, 1.287493e-04
 2.022525e-01, 9.501532e-03, 1.283991e-04
 2.041411e-01, 9.296247e-03, 1.265645e-04
 2.060298e-01, 9.348145e-03, 1.266273e-04
 2.079184e-01, 9.354225e-03, 1.242490e-04
 2.098071e-01, 9.103922e-03, 1.234778e-04
 2.116957e-01, 8.850702e-03, 1.204651e-04
 2.135844e-01, 8.990019e-03, 1.210125e-04
 2.154730e-01, 8.786844e-03, 1.207764e-04
 2.173617e-01, 8.630787e-03, 1.183188e-04
 2.192503e-01, 8.769104e-03, 1.161904e-04
 2.211390e-01, 8.782972e-03, 1.166509e-04
 2.230276e-01, 8.689110e-03, 1.169515e-04
 2.249163e-01, 8.503725e-03, 1.152736e-04
 2.268049e-01, 8.474308e-03, 1.140604e-04
 2.286936e-01, 8.351439e-03, 1.128264e-04
 2.305822e-01, 8.408685e-03, 1.117884e-04
 2.324709e-01, 8.056738e-03, 1.087756e-04
 2.343595e-01, 7.867728e-03, 1.085230e-04
 2.362482e-01, 7.643502e-03, 1.062212e-04
 2.381368e-01, 7.832899e-03, 1.065824e-04
 2.400255e-01, 7.658769e-03, 1.058625e-04
 2.419141e-01, 7.245648e-03, 1.010933e-04
 2.438028e-01, 7.339971e-03, 1.013205e-04
 2.456914e-01, 6.935778e-03, 9.958171e-05
 2.475801e-01, 7.204114e-03, 1.003869e-04
 2.494687e-01, 6.918419e-03, 9.791959e-05
 2.513574e-01, 7.085488e-03, 9.886834e-05
 2.532460e-01, 7.001269e-03, 9.787438e-05
 2.551347e-01, 6.931537e-03, 9.928571e-05
 2.570233e-01, 6.855275e-03, 9.776305e-05
 2.589120e-01, 6.925697e-03, 1.004146e-04
 2.608006e-01, 7.006231e-03, 1.012000e-04
 2.626893e-01, 6.901090e-03, 1.004918e-04
 2.645779e-01, 6.803236e-03, 9.819625e-05
 2.664666e-01, 6.890930e-03, 9.930697e-05
 2.683552e-01, 6.733106e-03, 9.854850e-05
 2.702439e-01, 6.864627e-03, 1.001949e-04
 2.721325e-01, 6.959137e-03, 1.005408e-04
 2.740212e-01, 6.878142e-03, 1.002534e-04
 2.759098e-01, 6.977054e-03, 9.885846e-05
 2.777985e-01, 6.949880e-03, 1.002920e-04
 2.796871e-01, 6.630353e-03, 9.825172e-05
 2.815758e-01, 6.894554e-03, 9.951431e-05
 2.834644e-01, 6.717778e-03, 9.818753e-05
 2.853530e-01, 6.719550e-03, 9.582749e-05
 2.872417e-01, 6.751797e-03, 9.472068e-05
 2.891303e-01, 6.701283e-03, 9.432815e-05
 2.910190e-01, 6.575719e-03, 9.237783e-05
 2.929076e-01, 6.552362e-03, 9.177842e-05
 2.947963e-01, 6.472272e-03, 9.157755e-05
 2.966849e-01, 6.440544e-03, 8.984279e-05
 2.985736e-01, 6.366240e-03, 8.869416e-05
 3.004622e-01, 6.628521e-03, 9.031990e-05
 3.023509e-01, 6.365844e-03, 8.826140e-05
 3.042395e-01, 6.447700e-03, 8.897823e-05
 3.061282e-01, 6.228908e-03, 8.657108e-05
 3.080168e-01, 6.234891e-03, 8.561859e-05
 3.099055e-01, 6.355272e-03, 8.654843e-05
 3.117941e-01, 6.267635e-03, 8.564932e-05
 3.136828e-01, 6.316119e-03, 8.528290e-05
 3.155714e-01, 6.285602e-03, 8.719916e-05
 3.174601e-01, 6.327407e-03, 8.735147e-05
 3.193487e-01, 6.311475e-03, 8.640993e-05
 3.212374e-01, 6.090198e-03, 8.616288e-05
 3.231260e-01, 6.289830e-03, 8.728302e-05
 3.250147e-01, 6.097396e-03, 8.542250e-05
 3.269033e-01, 6.129171e-03, 8.624086e-05
 3.287920e-01, 6.167660e-03, 8.630530e-05
 3.306806e-01, 6.223804e-03, 8.553088e-05
 3.325693e-01, 6.198278e-03, 8.635413e-05
 3.344579e-01, 6.210424e-03, 8.654856e-05
 3.363466e-01, 6.194559e-03, 8.541172e-05
 3.382352e-01, 6.133637e-03, 8.637213e-05
 3.401239e-01, 6.346769e-03, 8.740249e-05
 3.420125e-01, 6.432270e-03, 8.715365e-05
 3.439012e-01, 6.187263e-03, 8.568662e-05
 3.457898e-01, 6.406592e-03, 8.733645e-05
 3.476785e-01, 6.436515e-03, 8.793250e-05
 3.495671e-01, 6.464495e-03, 8.788117e-05
 3.514558e-01, 6.430839e-03, 8.679236e-05
 3.533444e-01, 6.822279e-03, 8.986022e-05
 3.552331e-01, 6.740360e-03, 8.858931e-05
 3.571217e-01, 6.940369e-03, 9.060967e-05
 3.590104e-01, 7.018605e-03, 9.119686e-05
 3.608990e-01, 7.116985e-03, 9.055392e-05
 3.627877e-01, 7.325387e-03, 9.223266e-05
 3.646763e-01, 7.515904e-03, 9.368568e-05
 3.665650e-01, 7.239111e-03, 9.095911e-05
 3.684536e-01, 7.581006e-03, 9.323101e-05
 3.703423e-01, 7.656709e-03, 9.431905e-05
 3.722309e-01, 7.696465e-03, 9.395019e-05
 3.741196e-01, 7.912962e-03, 9.537844e-05
 3.760082e-01, 8.063027e-03, 9.551579e-05
 3.778969e-01, 8.189293e-03, 9.594047e-05
 3.797855e-01, 8.372368e-03, 9.805162e-05
 3.816742e-01, 8.582507e-03, 9.912870e-05
 3.835628e-01, 8.684140e-03, 9.896496e-05
 3.854515e-01, 8.955086e-03, 9.960554e-05
 3.873401e-01, 9.139743e-03, 1.021599e-04
 3.892288e-01, 9.193391e-03, 1.011607e-04
 3.911174e-01, 9.476312e-03, 1.029426e-04
 3.930061e-01, 9.377512e-03, 1.029130e-04
 3.948947e-01, 9.646369e-03, 1.036824e-04
 3.967833e-01, 9.565337e-03, 1.023045e-04
 3.986720e-01, 9.900368e-03, 1.057247e-04
 4.005606e-01, 9.791029e-03, 1.033674e-04
 4.024493e-01, 9.681750e-03, 1.032489e-04
 4.043379e-01, 9.630759e-03, 1.032882e-04
 4.062266e-01, 9.545322e-03, 1.037229e-04
 4.081152e-01, 9.373942e-03, 1.029110e-04
 4.100039e-01, 9.139531e-03, 1.032732e-04
 4.118925e-01, 8.993857e-03, 1.029771e-04
 4.137812e-01, 8.888770e-03, 1.025021e-04
 4.156698e-01, 8.675902e-03, 1.009167e-04
 4.175585e-01, 8.201047e-03, 9.816160e-05
 4.194471e-01, 8.163042e-03, 9.895505e-05
 4.213358e-01, 7.956177e-03, 9.727279e-05
 4.232244e-01, 7.784385e-03, 9.754899e-05
 4.251131e-01, 7.396601e-03, 9.398999e-05
 4.270017e-01, 7.428760e-03, 9.503766e-05
 4.288904e-01, 6.991675e-03, 9.224359e-05
 4.307790e-01, 7.011751e-03, 9.230784e-05
 4.326677e-01, 6.825268e-03, 9.159990e-05
 4.345563e-01, 6.838104e-03, 9.241525e-05
 4.364450e-01, 6.602261e-03, 8.992035e-05
 4.383336e-01, 6.446285e-03, 8.933378e-05
 4.402223e-01, 6.405157e-03, 8.905504e-05
 4.421109e-01, 6.482800e-03, 8.982256e-05
 4.439996e-01, 6.457955e-03, 9.056273e-05
 4.458882e-01, 6.430995e-03, 9.038040e-05
 4.477769e-01, 6.112059e-03, 8.716406e-05
 4.496655e-01, 6.253238e-03, 8.857598e-05
 4.515542e-01, 6.049836e-03, 8.731277e-05
 4.534428e-01, 6.025848e-03, 8.788668e-05
 4.553315e-01, 6.023040e-03, 8.821240e-05
 4.572201e-01, 6.188970e-03, 8.836879e-05
 4.591088e-01, 6.094574e-03, 8.867238e-05
 4.609974e-01, 5.959764e-03, 8.687666e-05
 4.628861e-01, 6.181671e-03, 8.897484e-05
 4.647747e-01, 5.897994e-03, 8.751465e-05
 4.666634e-01, 6.059604e-03, 8.833204e-05
 4.685520e-01, 5.893730e-03, 8.783902e-05
 4.704407e-01, 5.918731e-03, 8.668471e-05
 4.723293e-01, 6.029099e-03, 8.839599e-05
 4.742180e-01, 5.723283e-03, 8.761610e-05
 4.761066e-01, 6.069695e-03, 9.218756e-05
 4.779953e-01, 5.793667e-03, 9.058135e-05
 4.798839e-01, 5.866030e-03, 9.098175e-05
 4.817726e-01, 5.777025e-03, 9.154900e-05
 4.836612e-01, 5.850474e-03, 9.253882e-05
 4.855499e-01, 5.743299e-03, 9.287578e-05
 4.874385e-01, 5.876148e-03, 9.404546e-05
 4.893272e-01, 5.728450e-03, 9.399747e-05
 4.912158e-01, 5.829482e-03, 9.487931e-05
 4.931045e-01, 5.902668e-03, 9.562818e-05
 4.949931e-01, 5.747138e-03, 9.595905e-05
 4.968818e-01, 5.752387e-03, 9.694270e-05
 4.987704e-01, 5.666673e-03, 9.581163e-05
 5.006591e-01, 5.617978e-03, 9.571619e-05
 5.025477e-01, 5.758877e-03, 9.814525e-05
 5.044364e-01, 5.794536e-03, 9.889669e-05
 5.063250e-01, 5.883617e-03, 1.006813e-04
 5.082137e-01, 5.756924e-03, 9.994299e-05
 5.101023e-01, 5.863666e-03, 1.004135e-04
 5.119909e-01, 5.574259e-03, 9.974731e-05
 5.138796e-01, 5.795565e-03, 1.004776e-04
 5.157682e-01, 5.649577e-03, 9.996511e-05
 5.176569e-01, 5.659622e-03, 1.021785e-04
 5.195455e-01, 5.761868e-03, 1.024828e-04
 5.214342e-01, 5.760654e-03, 1.012669e-04
 5.233228e-01, 5.874285e-03, 1.043174e-04
 5.252115e-01, 5.429061e-03, 1.007283e-04
 5.271001e-01, 5.667930e-03, 1.023619e-04
 5.289888e-01, 5.767572e-03, 1.048823e-04
 5.308774e-01, 5.563327e-03, 1.013695e-04
 5.327661e-01, 5.593740e-03, 1.035700e-04
 5.346547e-01, 5.853548e-03, 1.054907e-04
 5.365434e-01, 5.588566e-03, 1.032797e-04
 5.384320e-01, 5.546194e-03, 1.044224e-04
 5.403207e-01, 5.640232e-03, 1.045025e-04
 5.422093e-01, 5.691775e-03, 1.036068e-04
 5.440980e-01, 5.559729e-03, 1.041067e-04
 5.459866e-01, 5.652184e-03, 1.045089e-04
 5.478753e-01, 5.613318e-03, 1.047618e-04
 5.497639e-01, 5.735200e-03, 1.059714e-04
 5.516526e-01, 5.634916e-03, 1.040474e-04
 5.535412e-01, 5.497429e-03, 1.040404e-04
 5.554299e-01, 5.781452e-03, 1.071927e-04
 5.573185e-01, 5.652092e-03, 1.056512e-04
 5.592072e-01, 5.613083e-03, 1.060584e-04
 5.610958e-01, 5.738252e-03, 1.076006e-04
 5.629845e-01, 5.483392e-03, 1.049850e-04
 5.648731e-01, 5.676327e-03, 1.072533e-04
 5.667618e-01, 5.536736e-03, 1.074537e-04
 5.686504e-01, 5.717536e-03, 1.075912e-04
 5.705391e-01, 5.493182e-03, 1.074207e-04
 5.724277e-01, 5.602206e-03, 1.086425e-04
 5.743164e-01, 5.501632e-03, 1.054308e-04
 5.762050e-01, 5.516445e-03, 1.079789e-04
 5.780937e-01, 5.851544e-03, 1.128012e-04
 5.799823e-01, 5.677222e-03, 1.095630e-04
 5.818710e-01, 5.480748e-03, 1.069936e-04
 5.837596e-01, 5.494925e-03, 1.086454e-04
 5.856483e-01, 5.734522e-03, 1.110000e-04
 5.875369e-01, 5.606533e-03, 1.107872e-04
 5.894256e-01, 5.487302e-03, 1.100104e-04
 5.913142e-01, 5.307701e-03, 1.077387e-04
 5.932029e-01, 5.678215e-03, 1.108908e-04
 5.950915e-01, 5.762400e-03, 1.175510e-04
 5.969802e-01, 5.702677e-03, 1.193248e-04
 5.988688e-01, 5.570527e-03, 1.219077e-04
 6.007575e-01, 5.749549e-03, 1.270173e-04
 6.026461e-01, 5.713497e-03, 1.291536e-04
 6.045348e-01, 5.731992e-03, 1.315355e-04
 6.064234e-01, 5.760721e-03, 1.336094e-04
 6.083121e-01, 5.560978e-03, 1.347547e-04
 6.102007e-01, 5.751440e-03, 1.404044e-04
 6.120894e-01, 5.713120e-03, 1.409037e-04
 6.139780e-01, 5.335183e-03, 1.397238e-04
 6.158667e-01, 5.640737e-03, 1.447295e-04
 6.177553e-01, 5.846545e-03, 1.516666e-04
 6.196440e-01, 5.738962e-03, 1.524574e-04
 6.215326e-01, 5.904060e-03, 1.587021e-04
 6.234212e-01, 5.726143e-03, 1.554434e-04
 6.253099e-01, 5.435329e-03, 1.544776e-04
 6.271985e-01, 5.582872e-03, 1.625237e-04
 6.290872e-01, 6.091006e-03, 1.677130e-04
 6.309758e-01, 5.642781e-03, 1.649682e-04
 6.328645e-01, 5.651352e-03, 1.700087e-04
 6.347531e-01, 5.540725e-03, 1.675166e-04
 6.366418e-01, 5.809259e-03, 1.747590e-04
 6.385304e-01, 5.849751e-03, 1.817429e-04
 6.404191e-01, 5.960731e-03, 1.821398e-04
 6.423077e-01, 5.649374e-03, 1.796396e-04
 6.441964e-01, 5.851643e-03, 1.928182e-04
 6.460850e-01, 5.725089e-03, 1.865335e-04
 6.479737e-01, 5.728779e-03, 1.904311e-04
 6.498623e-01, 5.647584e-03, 1.956772e-04
 6.517510e-01, 5.692447e-03, 2.005079e-04
 6.536396e-01, 5.726136e-03, 1.983988e-04
 6.555283e-01, 5.905380e-03, 2.117181e-04
 6.574169e-01, 5.698613e-03, 2.144701e-04
 6.593056e-01, 5.616808e-03, 2.086030e-04
 6.611942e-01, 5.873033e-03, 2.237447e-04
 6.630829e-01, 5.719323e-03, 2.258997e-04
 6.649715e-01, 5.513728e-03, 2.205491e-04
 6.668602e-01, 5.848116e-03, 2.391473e-04
 6.687488e-01, 5.520595e-03, 2.353990e-04
 6.706375e-01, 5.876296e-03, 2.461310e-04
 6.725261e-01, 5.626403e-03, 2.467341e-04
 6.744148e-01, 6.004491e-03, 2.567335e-04
 6.763034e-01, 5.060276e-03, 2.382791e-04
 6.781921e-01, 5.818909e-03, 2.623367e-04
 6.800807e-01, 5.678317e-03, 2.591785e-04
 6.819694e-01, 5.908793e-03, 2.685815e-04
 6.838580e-01, 5.436395e-03, 2.640147e-04
 6.857467e-01, 5.725477e-03, 2.732621e-04
 6.876353e-01, 5.903003e-03, 2.810954e-04
 6.895240e-01, 6.365003e-03, 2.958068e-04
 6.914126e-01, 5.858008e-03, 2.903707e-04
 6.933013e-01, 5.783896e-03, 2.899205e-04
 6.951899e-01, 5.276088e-03, 2.865577e-04
 6.970786e-01, 6.349642e-03, 3.128244e-04
 6.989672e-01, 5.936597e-03, 3.120206e-04
 7.008559e-01, 5.859298e-03, 3.168345e-04
 7.027445e-01, 5.175256e-03, 2.978025e-04
 7.046332e-01, 5.780367e-03, 3.277745e-04
 7.065218e-01, 5.762010e-03, 3.354772e-04
 7.084105e-01, 5.506786e-03, 3.239286e-04
 7.102991e-01, 5.921437e-03, 3.538735e-04
 7.121878e-01, 6.262521e-03, 3.664863e-04
 7.140764e-01, 5.723973e-03, 3.605764e-04
 7.159651e-01, 5.890108e-03, 3.770756e-04
 7.178537e-01, 6.132261e-03, 3.878383e-04
 7.197424e-01, 5.884562e-03, 3.994701e-04
 7.216310e-01, 6.347147e-03, 4.149260e-04
 7.235197e-01, 5.620884e-03, 4.088592e-04
 7.254083e-01, 6.582445e-03, 4.654492e-04
 7.272970e-01, 5.859850e-03, 4.392143e-04
 7.291856e-01, 5.858975e-03, 4.646470e-04
 7.310743e-01, 6.305452e-03, 4.879306e-04
 7.329629e-01, 6.237992e-03, 5.253337e-04
 7.348515e-01, 6.664668e-03, 5.592865e-04
 7.367402e-01, 5.697154e-03, 5.335874e-04
 7.386288e-01, 7.174176e-03, 6.416778e-04
 7.405175e-01, 7.143566e-03, 6.938445e-04
 7.424061e-01, 6.275499e-03, 6.806734e-04
 7.442948e-01, 6.121645e-03, 7.068667e-04
 7.461834e-01, 5.480968e-03, 7.528688e-04
 7.480721e-01, 7.617038e-03, 1.036548e-03
 7.499607e-01, 5.690746e-03, 9.906318e-04
 7.518494e-01, 6.468441e-03, 1.293688e-03
 7.537380e-01, 1.086982e-02, 2.371988e-03
 7.556267e-01, NaN, NaN
 7.575153e-01, NaN, NaN
#HEADERS
"latest_0021290_caz","KF LIPNOR2 h2oON 45, conf 22, I0=22, trans=15638145.569884, time=1800"
