1,"Number of Datasets"
3,"Number of Columns per Dataset"
400,"Maximum Number of Rows for Any Dataset"
#DATASETS q-units: Angstrom I-units: Absolute intensity(cm^-1) X thickness(cm) 
"latest_0021296_caz","KF LIPNOR2 h2oON 68, conf 22, I0=22, trans=15411525.413308, time=1800","",
q,I,dI,
 3.944325e-03, NaN, NaN
 5.832974e-03, NaN, NaN
 7.721623e-03, NaN, NaN
 9.610272e-03, NaN, NaN
 1.149892e-02, NaN, NaN
 1.338757e-02, 2.023035e-01, 2.716523e-03
 1.527622e-02, 1.448195e-01, 1.804893e-03
 1.716487e-02, 1.057461e-01, 1.505139e-03
 1.905352e-02, 8.790036e-02, 1.225457e-03
 2.094217e-02, 7.642002e-02, 1.142635e-03
 2.283082e-02, 6.570415e-02, 9.561584e-04
 2.471947e-02, 5.717543e-02, 8.453059e-04
 2.660811e-02, 5.306426e-02, 8.143519e-04
 2.849676e-02, 5.013648e-02, 7.605171e-04
 3.038541e-02, 4.605102e-02, 6.995922e-04
 3.227406e-02, 4.465654e-02, 6.809266e-04
 3.416271e-02, 4.212222e-02, 6.156614e-04
 3.605136e-02, 4.232584e-02, 6.090837e-04
 3.794001e-02, 4.173794e-02, 5.843336e-04
 3.982866e-02, 4.031022e-02, 5.691059e-04
 4.171731e-02, 3.988854e-02, 5.644479e-04
 4.360596e-02, 4.019299e-02, 5.386425e-04
 4.549461e-02, 3.905286e-02, 5.121274e-04
 4.738326e-02, 3.909608e-02, 5.013142e-04
 4.927190e-02, 3.884312e-02, 5.020905e-04
 5.116055e-02, 3.911167e-02, 4.921361e-04
 5.304920e-02, 3.971101e-02, 4.870409e-04
 5.493785e-02, 3.928181e-02, 4.740323e-04
 5.682650e-02, 3.939840e-02, 4.603358e-04
 5.871515e-02, 4.087048e-02, 4.606752e-04
 6.060380e-02, 4.110912e-02, 4.656184e-04
 6.249245e-02, 4.138328e-02, 4.785233e-04
 6.438110e-02, 4.168999e-02, 4.863150e-04
 6.626975e-02, 4.308383e-02, 4.776196e-04
 6.815840e-02, 4.356049e-02, 4.869906e-04
 7.004705e-02, 4.365247e-02, 4.779690e-04
 7.193569e-02, 4.427330e-02, 4.795068e-04
 7.382434e-02, 4.677304e-02, 5.006260e-04
 7.571299e-02, 4.665288e-02, 4.970391e-04
 7.760164e-02, 4.762489e-02, 4.926303e-04
 7.949029e-02, 4.860009e-02, 4.876372e-04
 8.137894e-02, 5.121696e-02, 5.061320e-04
 8.326759e-02, 5.138114e-02, 4.978147e-04
 8.515624e-02, 5.367479e-02, 5.115598e-04
 8.704489e-02, 5.582991e-02, 5.265099e-04
 8.893354e-02, 5.673009e-02, 5.175922e-04
 9.082219e-02, 5.791940e-02, 5.193782e-04
 9.271084e-02, 5.927638e-02, 5.033554e-04
 9.459948e-02, 6.222187e-02, 4.886350e-04
 9.648813e-02, 6.353494e-02, 5.069026e-04
 9.837678e-02, 6.532338e-02, 4.950873e-04
 1.002654e-01, 6.647660e-02, 4.953360e-04
 1.021541e-01, 6.769812e-02, 4.958272e-04
 1.040427e-01, 6.916447e-02, 4.791434e-04
 1.059314e-01, 6.950184e-02, 4.815036e-04
 1.078200e-01, 7.018229e-02, 4.814918e-04
 1.097087e-01, 7.121110e-02, 4.797672e-04
 1.115973e-01, 7.157313e-02, 4.775789e-04
 1.134860e-01, 7.127477e-02, 4.689130e-04
 1.153746e-01, 6.993521e-02, 4.542397e-04
 1.172633e-01, 7.041826e-02, 4.504377e-04
 1.191519e-01, 6.830278e-02, 4.417493e-04
 1.210406e-01, 6.769363e-02, 4.388572e-04
 1.229292e-01, 6.504911e-02, 4.253121e-04
 1.248179e-01, 6.317364e-02, 4.132352e-04
 1.267065e-01, 6.250553e-02, 4.026836e-04
 1.285952e-01, 5.939965e-02, 3.940758e-04
 1.304838e-01, 5.853079e-02, 3.834809e-04
 1.323725e-01, 5.551631e-02, 3.745293e-04
 1.342611e-01, 5.368185e-02, 3.682978e-04
 1.361498e-01, 5.216509e-02, 3.492998e-04
 1.380384e-01, 5.039310e-02, 3.481768e-04
 1.399271e-01, 4.755414e-02, 3.346809e-04
 1.418157e-01, 4.614690e-02, 3.224770e-04
 1.437044e-01, 4.516531e-02, 3.233775e-04
 1.455930e-01, 4.314723e-02, 3.118353e-04
 1.474817e-01, 4.168836e-02, 3.025187e-04
 1.493703e-01, 4.006588e-02, 2.965809e-04
 1.512590e-01, 3.908396e-02, 2.864928e-04
 1.531476e-01, 3.758356e-02, 2.845036e-04
 1.550363e-01, 3.702405e-02, 2.767153e-04
 1.569249e-01, 3.539625e-02, 2.718208e-04
 1.588136e-01, 3.427501e-02, 2.662583e-04
 1.607022e-01, 3.319308e-02, 2.569712e-04
 1.625909e-01, 3.220677e-02, 2.509271e-04
 1.644795e-01, 3.194570e-02, 2.491958e-04
 1.663682e-01, 3.108826e-02, 2.458358e-04
 1.682568e-01, 2.999869e-02, 2.401202e-04
 1.701455e-01, 2.932444e-02, 2.367416e-04
 1.720341e-01, 2.817053e-02, 2.282081e-04
 1.739227e-01, 2.768506e-02, 2.244079e-04
 1.758114e-01, 2.699641e-02, 2.201315e-04
 1.777000e-01, 2.580523e-02, 2.185864e-04
 1.795887e-01, 2.557932e-02, 2.145738e-04
 1.814773e-01, 2.508028e-02, 2.119140e-04
 1.833660e-01, 2.423421e-02, 2.033976e-04
 1.852546e-01, 2.387565e-02, 2.029198e-04
 1.871433e-01, 2.287823e-02, 1.976378e-04
 1.890319e-01, 2.210007e-02, 1.936443e-04
 1.909206e-01, 2.197385e-02, 1.929759e-04
 1.928092e-01, 2.151225e-02, 1.901136e-04
 1.946979e-01, 2.060938e-02, 1.823910e-04
 1.965865e-01, 2.045670e-02, 1.833668e-04
 1.984752e-01, 1.958876e-02, 1.776179e-04
 2.003638e-01, 1.891416e-02, 1.736121e-04
 2.022525e-01, 1.865360e-02, 1.721146e-04
 2.041411e-01, 1.801519e-02, 1.685577e-04
 2.060298e-01, 1.772571e-02, 1.668159e-04
 2.079184e-01, 1.737678e-02, 1.620111e-04
 2.098071e-01, 1.672614e-02, 1.601193e-04
 2.116957e-01, 1.636938e-02, 1.567328e-04
 2.135844e-01, 1.584656e-02, 1.537053e-04
 2.154730e-01, 1.551312e-02, 1.535275e-04
 2.173617e-01, 1.535190e-02, 1.509666e-04
 2.192503e-01, 1.487115e-02, 1.447559e-04
 2.211390e-01, 1.448775e-02, 1.433307e-04
 2.230276e-01, 1.419538e-02, 1.430088e-04
 2.249163e-01, 1.389857e-02, 1.409878e-04
 2.268049e-01, 1.339623e-02, 1.371972e-04
 2.286936e-01, 1.336915e-02, 1.365693e-04
 2.305822e-01, 1.321313e-02, 1.340623e-04
 2.324709e-01, 1.270082e-02, 1.306588e-04
 2.343595e-01, 1.285518e-02, 1.327111e-04
 2.362482e-01, 1.235944e-02, 1.292218e-04
 2.381368e-01, 1.190647e-02, 1.257150e-04
 2.400255e-01, 1.197306e-02, 1.266299e-04
 2.419141e-01, 1.169215e-02, 1.228577e-04
 2.438028e-01, 1.172057e-02, 1.224886e-04
 2.456914e-01, 1.113224e-02, 1.206965e-04
 2.475801e-01, 1.109902e-02, 1.192066e-04
 2.494687e-01, 1.108629e-02, 1.185852e-04
 2.513574e-01, 1.088036e-02, 1.172101e-04
 2.532460e-01, 1.064318e-02, 1.154483e-04
 2.551347e-01, 1.064210e-02, 1.176947e-04
 2.570233e-01, 1.028750e-02, 1.145746e-04
 2.589120e-01, 1.038963e-02, 1.176621e-04
 2.608006e-01, 1.006359e-02, 1.160342e-04
 2.626893e-01, 9.943156e-03, 1.153999e-04
 2.645779e-01, 9.718840e-03, 1.122834e-04
 2.664666e-01, 9.842267e-03, 1.135428e-04
 2.683552e-01, 9.590972e-03, 1.125239e-04
 2.702439e-01, 9.453780e-03, 1.124892e-04
 2.721325e-01, 9.161232e-03, 1.103603e-04
 2.740212e-01, 9.495715e-03, 1.126934e-04
 2.759098e-01, 9.308815e-03, 1.092436e-04
 2.777985e-01, 9.153255e-03, 1.101125e-04
 2.796871e-01, 8.948125e-03, 1.091966e-04
 2.815758e-01, 9.119667e-03, 1.094947e-04
 2.834644e-01, 8.812258e-03, 1.075866e-04
 2.853530e-01, 8.746734e-03, 1.045958e-04
 2.872417e-01, 8.771388e-03, 1.032858e-04
 2.891303e-01, 8.707295e-03, 1.028668e-04
 2.910190e-01, 8.601877e-03, 1.010797e-04
 2.929076e-01, 8.696187e-03, 1.011527e-04
 2.947963e-01, 8.248231e-03, 9.890363e-05
 2.966849e-01, 8.273747e-03, 9.741913e-05
 2.985736e-01, 8.395160e-03, 9.744044e-05
 3.004622e-01, 8.480666e-03, 9.773752e-05
 3.023509e-01, 8.428194e-03, 9.715861e-05
 3.042395e-01, 8.246751e-03, 9.627068e-05
 3.061282e-01, 8.275707e-03, 9.546422e-05
 3.080168e-01, 8.112662e-03, 9.343434e-05
 3.099055e-01, 8.063765e-03, 9.326791e-05
 3.117941e-01, 8.097500e-03, 9.313625e-05
 3.136828e-01, 8.193333e-03, 9.292623e-05
 3.155714e-01, 7.960659e-03, 9.388249e-05
 3.174601e-01, 7.962202e-03, 9.374436e-05
 3.193487e-01, 7.847965e-03, 9.218239e-05
 3.212374e-01, 7.911500e-03, 9.395180e-05
 3.231260e-01, 7.924056e-03, 9.372496e-05
 3.250147e-01, 8.033106e-03, 9.380220e-05
 3.269033e-01, 7.924297e-03, 9.381316e-05
 3.287920e-01, 7.847933e-03, 9.313783e-05
 3.306806e-01, 7.856582e-03, 9.193545e-05
 3.325693e-01, 7.788274e-03, 9.260606e-05
 3.344579e-01, 7.866591e-03, 9.318879e-05
 3.363466e-01, 7.553724e-03, 9.023272e-05
 3.382352e-01, 7.785691e-03, 9.309671e-05
 3.401239e-01, 7.655255e-03, 9.183294e-05
 3.420125e-01, 7.840194e-03, 9.205302e-05
 3.439012e-01, 7.597271e-03, 9.083721e-05
 3.457898e-01, 7.902495e-03, 9.279730e-05
 3.476785e-01, 7.850344e-03, 9.290511e-05
 3.495671e-01, 7.686963e-03, 9.168053e-05
 3.514558e-01, 7.827445e-03, 9.160704e-05
 3.533444e-01, 7.941657e-03, 9.275333e-05
 3.552331e-01, 8.022349e-03, 9.246167e-05
 3.571217e-01, 8.037979e-03, 9.328845e-05
 3.590104e-01, 8.095116e-03, 9.369949e-05
 3.608990e-01, 8.127299e-03, 9.257709e-05
 3.627877e-01, 8.328671e-03, 9.408675e-05
 3.646763e-01, 8.438392e-03, 9.496939e-05
 3.665650e-01, 8.491778e-03, 9.424842e-05
 3.684536e-01, 8.678444e-03, 9.543092e-05
 3.703423e-01, 8.785860e-03, 9.665887e-05
 3.722309e-01, 8.963001e-03, 9.699513e-05
 3.741196e-01, 9.010101e-03, 9.736810e-05
 3.760082e-01, 9.094694e-03, 9.704907e-05
 3.778969e-01, 9.499254e-03, 9.885407e-05
 3.797855e-01, 9.581987e-03, 1.003528e-04
 3.816742e-01, 9.802218e-03, 1.013504e-04
 3.835628e-01, 9.999258e-03, 1.015952e-04
 3.854515e-01, 1.003864e-02, 1.008921e-04
 3.873401e-01, 1.031227e-02, 1.038154e-04
 3.892288e-01, 1.038365e-02, 1.028538e-04
 3.911174e-01, 1.053092e-02, 1.038197e-04
 3.930061e-01, 1.097997e-02, 1.065364e-04
 3.948947e-01, 1.105550e-02, 1.061900e-04
 3.967833e-01, 1.106008e-02, 1.052434e-04
 3.986720e-01, 1.097615e-02, 1.064993e-04
 4.005606e-01, 1.110973e-02, 1.053398e-04
 4.024493e-01, 1.098968e-02, 1.052379e-04
 4.043379e-01, 1.076225e-02, 1.044584e-04
 4.062266e-01, 1.075211e-02, 1.053167e-04
 4.081152e-01, 1.056184e-02, 1.045061e-04
 4.100039e-01, 1.034945e-02, 1.051370e-04
 4.118925e-01, 1.024319e-02, 1.051372e-04
 4.137812e-01, 9.884844e-03, 1.034113e-04
 4.156698e-01, 9.569412e-03, 1.013957e-04
 4.175585e-01, 9.525592e-03, 1.012102e-04
 4.194471e-01, 9.387121e-03, 1.015195e-04
 4.213358e-01, 9.181334e-03, 9.996852e-05
 4.232244e-01, 8.939442e-03, 1.000085e-04
 4.251131e-01, 8.562520e-03, 9.674701e-05
 4.270017e-01, 8.481769e-03, 9.715205e-05
 4.288904e-01, 8.409700e-03, 9.678477e-05
 4.307790e-01, 8.425112e-03, 9.680201e-05
 4.326677e-01, 8.275520e-03, 9.649482e-05
 4.345563e-01, 8.014454e-03, 9.571588e-05
 4.364450e-01, 7.928105e-03, 9.426871e-05
 4.383336e-01, 7.912365e-03, 9.468590e-05
 4.402223e-01, 7.858027e-03, 9.436731e-05
 4.421109e-01, 7.608992e-03, 9.309768e-05
 4.439996e-01, 7.711199e-03, 9.467475e-05
 4.458882e-01, 7.654247e-03, 9.433168e-05
 4.477769e-01, 7.519093e-03, 9.249060e-05
 4.496655e-01, 7.446965e-03, 9.247499e-05
 4.515542e-01, 7.381324e-03, 9.226655e-05
 4.534428e-01, 7.528394e-03, 9.398019e-05
 4.553315e-01, 7.204719e-03, 9.229995e-05
 4.572201e-01, 7.466040e-03, 9.285516e-05
 4.591088e-01, 7.245380e-03, 9.249505e-05
 4.609974e-01, 7.201466e-03, 9.136297e-05
 4.628861e-01, 7.139365e-03, 9.147771e-05
 4.647747e-01, 7.185678e-03, 9.241313e-05
 4.666634e-01, 7.204255e-03, 9.214290e-05
 4.685520e-01, 7.252668e-03, 9.322073e-05
 4.704407e-01, 7.228679e-03, 9.164924e-05
 4.723293e-01, 7.405399e-03, 9.372421e-05
 4.742180e-01, 7.208602e-03, 9.407149e-05
 4.761066e-01, 7.032897e-03, 9.493519e-05
 4.779953e-01, 7.091419e-03, 9.587377e-05
 4.798839e-01, 7.231312e-03, 9.664110e-05
 4.817726e-01, 7.195559e-03, 9.774734e-05
 4.836612e-01, 7.081519e-03, 9.740088e-05
 4.855499e-01, 7.197565e-03, 9.946854e-05
 4.874385e-01, 7.006509e-03, 9.824568e-05
 4.893272e-01, 7.096537e-03, 1.000903e-04
 4.912158e-01, 7.020202e-03, 9.960990e-05
 4.931045e-01, 7.180579e-03, 1.009050e-04
 4.949931e-01, 7.016889e-03, 1.014387e-04
 4.968818e-01, 7.072706e-03, 1.028383e-04
 4.987704e-01, 7.011647e-03, 1.019613e-04
 5.006591e-01, 6.935948e-03, 1.017465e-04
 5.025477e-01, 6.986969e-03, 1.034227e-04
 5.044364e-01, 6.925578e-03, 1.034360e-04
 5.063250e-01, 7.023381e-03, 1.052377e-04
 5.082137e-01, 6.877724e-03, 1.045083e-04
 5.101023e-01, 7.305709e-03, 1.072284e-04
 5.119909e-01, 7.186403e-03, 1.083514e-04
 5.138796e-01, 7.013573e-03, 1.057456e-04
 5.157682e-01, 6.890092e-03, 1.056147e-04
 5.176569e-01, 6.753586e-03, 1.067836e-04
 5.195455e-01, 7.085385e-03, 1.087232e-04
 5.214342e-01, 6.900159e-03, 1.060309e-04
 5.233228e-01, 7.012642e-03, 1.090414e-04
 5.252115e-01, 7.040384e-03, 1.097384e-04
 5.271001e-01, 6.845743e-03, 1.076236e-04
 5.289888e-01, 6.935411e-03, 1.100305e-04
 5.308774e-01, 7.010614e-03, 1.088652e-04
 5.327661e-01, 7.099484e-03, 1.116266e-04
 5.346547e-01, 6.827801e-03, 1.089975e-04
 5.365434e-01, 7.020850e-03, 1.107467e-04
 5.384320e-01, 6.848622e-03, 1.110117e-04
 5.403207e-01, 6.909587e-03, 1.106561e-04
 5.422093e-01, 6.747402e-03, 1.079204e-04
 5.440980e-01, 6.619427e-03, 1.086760e-04
 5.459866e-01, 6.648217e-03, 1.084349e-04
 5.478753e-01, 6.757108e-03, 1.099626e-04
 5.497639e-01, 7.026975e-03, 1.122199e-04
 5.516526e-01, 6.789184e-03, 1.092616e-04
 5.535412e-01, 6.914780e-03, 1.116304e-04
 5.554299e-01, 6.994101e-03, 1.127934e-04
 5.573185e-01, 6.879404e-03, 1.115107e-04
 5.592072e-01, 6.953197e-03, 1.129296e-04
 5.610958e-01, 6.635133e-03, 1.106932e-04
 5.629845e-01, 6.803215e-03, 1.118744e-04
 5.648731e-01, 6.823803e-03, 1.125023e-04
 5.667618e-01, 6.787243e-03, 1.138184e-04
 5.686504e-01, 6.845158e-03, 1.126251e-04
 5.705391e-01, 6.884922e-03, 1.150527e-04
 5.724277e-01, 6.612271e-03, 1.129190e-04
 5.743164e-01, 6.616474e-03, 1.106131e-04
 5.762050e-01, 6.697122e-03, 1.138216e-04
 5.780937e-01, 6.991612e-03, 1.179609e-04
 5.799823e-01, 6.730752e-03, 1.141297e-04
 5.818710e-01, 6.819012e-03, 1.141747e-04
 5.837596e-01, 6.961928e-03, 1.169948e-04
 5.856483e-01, 6.796178e-03, 1.156053e-04
 5.875369e-01, 6.756391e-03, 1.163512e-04
 5.894256e-01, 6.847101e-03, 1.175652e-04
 5.913142e-01, 6.757429e-03, 1.163001e-04
 5.932029e-01, 6.848092e-03, 1.165053e-04
 5.950915e-01, 6.983806e-03, 1.238061e-04
 5.969802e-01, 7.043000e-03, 1.268649e-04
 5.988688e-01, 6.646551e-03, 1.273950e-04
 6.007575e-01, 6.831496e-03, 1.324570e-04
 6.026461e-01, 6.757754e-03, 1.343779e-04
 6.045348e-01, 7.075100e-03, 1.398066e-04
 6.064234e-01, 7.008299e-03, 1.409861e-04
 6.083121e-01, 6.646817e-03, 1.409439e-04
 6.102007e-01, 6.826308e-03, 1.463378e-04
 6.120894e-01, 6.940147e-03, 1.485735e-04
 6.139780e-01, 6.691595e-03, 1.497035e-04
 6.158667e-01, 7.127199e-03, 1.556394e-04
 6.177553e-01, 7.093966e-03, 1.598291e-04
 6.196440e-01, 7.009667e-03, 1.611950e-04
 6.215326e-01, 6.918641e-03, 1.643573e-04
 6.234212e-01, 7.164216e-03, 1.663400e-04
 6.253099e-01, 6.963797e-03, 1.672811e-04
 6.271985e-01, 6.681654e-03, 1.700987e-04
 6.290872e-01, 6.737131e-03, 1.687450e-04
 6.309758e-01, 7.049441e-03, 1.764015e-04
 6.328645e-01, 6.820120e-03, 1.786744e-04
 6.347531e-01, 6.739940e-03, 1.767559e-04
 6.366418e-01, 6.534323e-03, 1.773171e-04
 6.385304e-01, 6.692522e-03, 1.859751e-04
 6.404191e-01, 6.703603e-03, 1.847908e-04
 6.423077e-01, 6.780885e-03, 1.882853e-04
 6.441964e-01, 7.042141e-03, 2.023637e-04
 6.460850e-01, 7.047748e-03, 1.979986e-04
 6.479737e-01, 7.097280e-03, 2.027794e-04
 6.498623e-01, 6.968508e-03, 2.079457e-04
 6.517510e-01, 6.851918e-03, 2.104550e-04
 6.536396e-01, 6.637606e-03, 2.043550e-04
 6.555283e-01, 6.940266e-03, 2.195803e-04
 6.574169e-01, 6.685831e-03, 2.222445e-04
 6.593056e-01, 6.473881e-03, 2.142542e-04
 6.611942e-01, 7.052678e-03, 2.345686e-04
 6.630829e-01, 6.957746e-03, 2.383684e-04
 6.649715e-01, 7.048910e-03, 2.385695e-04
 6.668602e-01, 7.071056e-03, 2.515769e-04
 6.687488e-01, 6.357285e-03, 2.416677e-04
 6.706375e-01, 6.331312e-03, 2.444176e-04
 6.725261e-01, 6.644960e-03, 2.565259e-04
 6.744148e-01, 6.590753e-03, 2.573257e-04
 6.763034e-01, 6.900957e-03, 2.662102e-04
 6.781921e-01, 7.187650e-03, 2.789349e-04
 6.800807e-01, 7.167682e-03, 2.785799e-04
 6.819694e-01, 7.151148e-03, 2.826739e-04
 6.838580e-01, 7.205364e-03, 2.907848e-04
 6.857467e-01, 6.780128e-03, 2.844879e-04
 6.876353e-01, 7.338438e-03, 2.998405e-04
 6.895240e-01, 6.492466e-03, 2.858149e-04
 6.914126e-01, 7.719613e-03, 3.188943e-04
 6.933013e-01, 6.943050e-03, 3.038890e-04
 6.951899e-01, 6.823233e-03, 3.117615e-04
 6.970786e-01, 6.911789e-03, 3.122428e-04
 6.989672e-01, 6.784375e-03, 3.191101e-04
 7.008559e-01, 7.213062e-03, 3.363108e-04
 7.027445e-01, 6.822704e-03, 3.271236e-04
 7.046332e-01, 6.668428e-03, 3.368065e-04
 7.065218e-01, 7.383196e-03, 3.633033e-04
 7.084105e-01, 7.150338e-03, 3.531300e-04
 7.102991e-01, 6.890670e-03, 3.652048e-04
 7.121878e-01, 7.321795e-03, 3.791082e-04
 7.140764e-01, 7.130723e-03, 3.850229e-04
 7.159651e-01, 6.539847e-03, 3.801209e-04
 7.178537e-01, 7.408614e-03, 4.078308e-04
 7.197424e-01, 7.495553e-03, 4.313206e-04
 7.216310e-01, 6.653343e-03, 4.064176e-04
 7.235197e-01, 6.913834e-03, 4.338125e-04
 7.254083e-01, 7.018682e-03, 4.598091e-04
 7.272970e-01, 7.472407e-03, 4.744983e-04
 7.291856e-01, 7.149947e-03, 4.910604e-04
 7.310743e-01, 8.051895e-03, 5.274972e-04
 7.329629e-01, 6.762146e-03, 5.232706e-04
 7.348515e-01, 7.474494e-03, 5.666400e-04
 7.367402e-01, 7.226909e-03, 5.749420e-04
 7.386288e-01, 5.830790e-03, 5.534341e-04
 7.405175e-01, 6.044741e-03, 6.106110e-04
 7.424061e-01, 7.703295e-03, 7.214797e-04
 7.442948e-01, 6.648739e-03, 7.047649e-04
 7.461834e-01, 7.572055e-03, 8.465814e-04
 7.480721e-01, 7.100639e-03, 9.574500e-04
 7.499607e-01, 7.418149e-03, 1.082048e-03
 7.518494e-01, 1.018288e-02, 1.552874e-03
 7.537380e-01, 1.042241e-02, 2.222064e-03
 7.556267e-01, NaN, NaN
 7.575153e-01, NaN, NaN
#HEADERS
"latest_0021296_caz","KF LIPNOR2 h2oON 68, conf 22, I0=22, trans=15411525.413308, time=1800"
