1,"Number of Datasets"
3,"Number of Columns per Dataset"
400,"Maximum Number of Rows for Any Dataset"
#DATASETS q-units: Angstrom I-units: Absolute intensity(cm^-1) X thickness(cm) 
"latest_0021298_caz","KF LIPNOR2 h2oON 45, conf 22, I0=22, trans=15749049.745538, time=1800","",
q,I,dI,
 3.944325e-03, NaN, NaN
 5.832974e-03, NaN, NaN
 7.721623e-03, NaN, NaN
 9.610272e-03, NaN, NaN
 1.149892e-02, NaN, NaN
 1.338757e-02, 4.109167e-01, 3.853153e-03
 1.527622e-02, 3.013482e-01, 2.591194e-03
 1.716487e-02, 2.221517e-01, 2.171186e-03
 1.905352e-02, 1.830998e-01, 1.760249e-03
 2.094217e-02, 1.518283e-01, 1.602906e-03
 2.283082e-02, 1.324618e-01, 1.351159e-03
 2.471947e-02, 1.155300e-01, 1.195871e-03
 2.660811e-02, 1.086237e-01, 1.159581e-03
 2.849676e-02, 1.030799e-01, 1.085292e-03
 3.038541e-02, 9.778559e-02, 1.014590e-03
 3.227406e-02, 9.724748e-02, 1.000057e-03
 3.416271e-02, 1.010387e-01, 9.489817e-04
 3.605136e-02, 1.074271e-01, 9.657366e-04
 3.794001e-02, 1.224769e-01, 9.962079e-04
 3.982866e-02, 1.389459e-01, 1.051565e-03
 4.171731e-02, 1.567650e-01, 1.113658e-03
 4.360596e-02, 1.826826e-01, 1.142883e-03
 4.549461e-02, 1.966093e-01, 1.143619e-03
 4.738326e-02, 2.003728e-01, 1.129511e-03
 4.927190e-02, 1.996350e-01, 1.132846e-03
 5.116055e-02, 1.917504e-01, 1.084496e-03
 5.304920e-02, 1.803984e-01, 1.033128e-03
 5.493785e-02, 1.650291e-01, 9.669858e-04
 5.682650e-02, 1.523675e-01, 9.009678e-04
 5.871515e-02, 1.365319e-01, 8.379820e-04
 6.060380e-02, 1.221142e-01, 7.986781e-04
 6.249245e-02, 1.116256e-01, 7.821682e-04
 6.438110e-02, 1.001699e-01, 7.502362e-04
 6.626975e-02, 9.218808e-02, 6.953285e-04
 6.815840e-02, 8.428202e-02, 6.741699e-04
 7.004705e-02, 7.872077e-02, 6.388040e-04
 7.193569e-02, 7.382186e-02, 6.162315e-04
 7.382434e-02, 7.153390e-02, 6.161680e-04
 7.571299e-02, 7.030073e-02, 6.072379e-04
 7.760164e-02, 6.949697e-02, 5.922631e-04
 7.949029e-02, 6.933143e-02, 5.796569e-04
 8.137894e-02, 6.861993e-02, 5.830552e-04
 8.326759e-02, 6.858364e-02, 5.724055e-04
 8.515624e-02, 7.077235e-02, 5.846160e-04
 8.704489e-02, 7.272462e-02, 5.980554e-04
 8.893354e-02, 7.488738e-02, 5.918518e-04
 9.082219e-02, 7.621865e-02, 5.929662e-04
 9.271084e-02, 7.758733e-02, 5.731350e-04
 9.459948e-02, 7.632879e-02, 5.386230e-04
 9.648813e-02, 7.390743e-02, 5.441140e-04
 9.837678e-02, 7.007347e-02, 5.103309e-04
 1.002654e-01, 6.662754e-02, 4.935373e-04
 1.021541e-01, 6.252290e-02, 4.742302e-04
 1.040427e-01, 6.097523e-02, 4.477425e-04
 1.059314e-01, 5.993044e-02, 4.449926e-04
 1.078200e-01, 5.965732e-02, 4.418091e-04
 1.097087e-01, 5.883283e-02, 4.340045e-04
 1.115973e-01, 5.880421e-02, 4.308261e-04
 1.134860e-01, 5.913910e-02, 4.250983e-04
 1.153746e-01, 5.858399e-02, 4.137655e-04
 1.172633e-01, 5.947536e-02, 4.119915e-04
 1.191519e-01, 5.927474e-02, 4.095615e-04
 1.210406e-01, 5.932912e-02, 4.088941e-04
 1.229292e-01, 5.770498e-02, 3.986771e-04
 1.248179e-01, 5.703941e-02, 3.907909e-04
 1.267065e-01, 5.651826e-02, 3.810893e-04
 1.285952e-01, 5.888467e-02, 3.904960e-04
 1.304838e-01, 6.048587e-02, 3.879771e-04
 1.323725e-01, 6.480704e-02, 4.027302e-04
 1.342611e-01, 6.760061e-02, 4.113280e-04
 1.361498e-01, 7.002493e-02, 4.027748e-04
 1.380384e-01, 6.758515e-02, 4.012985e-04
 1.399271e-01, 6.111958e-02, 3.776196e-04
 1.418157e-01, 5.421283e-02, 3.478614e-04
 1.437044e-01, 4.706866e-02, 3.285495e-04
 1.455930e-01, 4.088907e-02, 3.021204e-04
 1.474817e-01, 3.651735e-02, 2.817878e-04
 1.493703e-01, 3.352921e-02, 2.700195e-04
 1.512590e-01, 3.061699e-02, 2.523616e-04
 1.531476e-01, 2.862550e-02, 2.471115e-04
 1.550363e-01, 2.650974e-02, 2.330352e-04
 1.569249e-01, 2.502399e-02, 2.274626e-04
 1.588136e-01, 2.371402e-02, 2.204168e-04
 1.607022e-01, 2.265091e-02, 2.112667e-04
 1.625909e-01, 2.122141e-02, 2.027164e-04
 1.644795e-01, 2.034586e-02, 1.979248e-04
 1.663682e-01, 1.937655e-02, 1.931580e-04
 1.682568e-01, 1.900706e-02, 1.902228e-04
 1.701455e-01, 1.869441e-02, 1.881236e-04
 1.720341e-01, 1.779871e-02, 1.805325e-04
 1.739227e-01, 1.758474e-02, 1.779963e-04
 1.758114e-01, 1.654004e-02, 1.714846e-04
 1.777000e-01, 1.619401e-02, 1.723352e-04
 1.795887e-01, 1.634357e-02, 1.706999e-04
 1.814773e-01, 1.580230e-02, 1.674100e-04
 1.833660e-01, 1.531111e-02, 1.609023e-04
 1.852546e-01, 1.506497e-02, 1.604200e-04
 1.871433e-01, 1.454697e-02, 1.568457e-04
 1.890319e-01, 1.417440e-02, 1.543434e-04
 1.909206e-01, 1.404679e-02, 1.535558e-04
 1.928092e-01, 1.329332e-02, 1.487355e-04
 1.946979e-01, 1.329252e-02, 1.457815e-04
 1.965865e-01, 1.270511e-02, 1.438201e-04
 1.984752e-01, 1.277455e-02, 1.427525e-04
 2.003638e-01, 1.204192e-02, 1.378675e-04
 2.022525e-01, 1.197837e-02, 1.372660e-04
 2.041411e-01, 1.184242e-02, 1.360120e-04
 2.060298e-01, 1.161575e-02, 1.343962e-04
 2.079184e-01, 1.156525e-02, 1.315423e-04
 2.098071e-01, 1.132927e-02, 1.311518e-04
 2.116957e-01, 1.128047e-02, 1.294896e-04
 2.135844e-01, 1.095283e-02, 1.271780e-04
 2.154730e-01, 1.093814e-02, 1.283028e-04
 2.173617e-01, 1.063735e-02, 1.250674e-04
 2.192503e-01, 1.058337e-02, 1.215356e-04
 2.211390e-01, 1.056772e-02, 1.218308e-04
 2.230276e-01, 1.035455e-02, 1.215577e-04
 2.249163e-01, 1.050412e-02, 1.219843e-04
 2.268049e-01, 1.032682e-02, 1.198850e-04
 2.286936e-01, 1.029747e-02, 1.192873e-04
 2.305822e-01, 1.019364e-02, 1.171915e-04
 2.324709e-01, 9.816244e-03, 1.143203e-04
 2.343595e-01, 9.200711e-03, 1.117395e-04
 2.362482e-01, 9.251126e-03, 1.112657e-04
 2.381368e-01, 9.028447e-03, 1.089506e-04
 2.400255e-01, 8.552254e-03, 1.065128e-04
 2.419141e-01, 8.443192e-03, 1.039049e-04
 2.438028e-01, 8.530691e-03, 1.040019e-04
 2.456914e-01, 8.176233e-03, 1.029455e-04
 2.475801e-01, 8.241715e-03, 1.022338e-04
 2.494687e-01, 8.298561e-03, 1.021096e-04
 2.513574e-01, 8.063064e-03, 1.004202e-04
 2.532460e-01, 8.012933e-03, 9.969543e-05
 2.551347e-01, 7.816804e-03, 1.003888e-04
 2.570233e-01, 7.803491e-03, 9.931289e-05
 2.589120e-01, 7.775298e-03, 1.013031e-04
 2.608006e-01, 7.815908e-03, 1.017717e-04
 2.626893e-01, 7.808396e-03, 1.017775e-04
 2.645779e-01, 7.633637e-03, 9.903797e-05
 2.664666e-01, 7.740384e-03, 1.002123e-04
 2.683552e-01, 7.763353e-03, 1.007548e-04
 2.702439e-01, 7.725322e-03, 1.012032e-04
 2.721325e-01, 7.754762e-03, 1.010526e-04
 2.740212e-01, 7.843676e-03, 1.019347e-04
 2.759098e-01, 7.744830e-03, 9.917051e-05
 2.777985e-01, 7.772627e-03, 1.009858e-04
 2.796871e-01, 7.720100e-03, 1.009444e-04
 2.815758e-01, 7.777770e-03, 1.006373e-04
 2.834644e-01, 7.698148e-03, 1.000773e-04
 2.853530e-01, 7.523864e-03, 9.654712e-05
 2.872417e-01, 7.482202e-03, 9.493987e-05
 2.891303e-01, 7.292083e-03, 9.368865e-05
 2.910190e-01, 7.222501e-03, 9.218045e-05
 2.929076e-01, 7.353775e-03, 9.257541e-05
 2.947963e-01, 7.171411e-03, 9.178291e-05
 2.966849e-01, 7.107851e-03, 8.986487e-05
 2.985736e-01, 6.917382e-03, 8.802850e-05
 3.004622e-01, 6.882761e-03, 8.763051e-05
 3.023509e-01, 6.954751e-03, 8.783800e-05
 3.042395e-01, 7.004049e-03, 8.829880e-05
 3.061282e-01, 6.868551e-03, 8.655621e-05
 3.080168e-01, 6.919639e-03, 8.588042e-05
 3.099055e-01, 6.823558e-03, 8.538791e-05
 3.117941e-01, 6.708051e-03, 8.436632e-05
 3.136828e-01, 6.984935e-03, 8.539193e-05
 3.155714e-01, 6.720386e-03, 8.584891e-05
 3.174601e-01, 6.734309e-03, 8.580305e-05
 3.193487e-01, 6.682699e-03, 8.465898e-05
 3.212374e-01, 6.817442e-03, 8.679886e-05
 3.231260e-01, 6.624477e-03, 8.528741e-05
 3.250147e-01, 6.637543e-03, 8.485992e-05
 3.269033e-01, 6.548743e-03, 8.487700e-05
 3.287920e-01, 6.690592e-03, 8.558711e-05
 3.306806e-01, 6.670555e-03, 8.430917e-05
 3.325693e-01, 6.649807e-03, 8.516300e-05
 3.344579e-01, 6.842765e-03, 8.649955e-05
 3.363466e-01, 6.753851e-03, 8.491548e-05
 3.382352e-01, 6.627863e-03, 8.548702e-05
 3.401239e-01, 6.859098e-03, 8.651269e-05
 3.420125e-01, 6.788320e-03, 8.524785e-05
 3.439012e-01, 6.823700e-03, 8.567864e-05
 3.457898e-01, 6.901355e-03, 8.630740e-05
 3.476785e-01, 6.991668e-03, 8.725961e-05
 3.495671e-01, 7.159063e-03, 8.805529e-05
 3.514558e-01, 7.073468e-03, 8.666878e-05
 3.533444e-01, 7.223493e-03, 8.803903e-05
 3.552331e-01, 7.332879e-03, 8.797836e-05
 3.571217e-01, 7.342847e-03, 8.873896e-05
 3.590104e-01, 7.655129e-03, 9.068378e-05
 3.608990e-01, 7.926851e-03, 9.099309e-05
 3.627877e-01, 8.049536e-03, 9.205634e-05
 3.646763e-01, 8.357184e-03, 9.406140e-05
 3.665650e-01, 8.268139e-03, 9.255637e-05
 3.684536e-01, 8.321608e-03, 9.300353e-05
 3.703423e-01, 8.352713e-03, 9.379744e-05
 3.722309e-01, 8.551408e-03, 9.429087e-05
 3.741196e-01, 8.474283e-03, 9.397903e-05
 3.760082e-01, 8.537483e-03, 9.358148e-05
 3.778969e-01, 8.541898e-03, 9.329420e-05
 3.797855e-01, 8.990245e-03, 9.674204e-05
 3.816742e-01, 9.063501e-03, 9.699272e-05
 3.835628e-01, 9.158932e-03, 9.676968e-05
 3.854515e-01, 9.330622e-03, 9.680610e-05
 3.873401e-01, 9.484510e-03, 9.908770e-05
 3.892288e-01, 9.536253e-03, 9.809838e-05
 3.911174e-01, 9.765852e-03, 9.950143e-05
 3.930061e-01, 9.956237e-03, 1.009654e-04
 3.948947e-01, 9.960409e-03, 1.003138e-04
 3.967833e-01, 1.016048e-02, 1.003924e-04
 3.986720e-01, 1.021991e-02, 1.022758e-04
 4.005606e-01, 1.028398e-02, 1.008670e-04
 4.024493e-01, 1.024046e-02, 1.011037e-04
 4.043379e-01, 1.035575e-02, 1.019788e-04
 4.062266e-01, 1.000320e-02, 1.010991e-04
 4.081152e-01, 9.839809e-03, 1.003905e-04
 4.100039e-01, 9.870305e-03, 1.021856e-04
 4.118925e-01, 9.477847e-03, 1.006517e-04
 4.137812e-01, 9.242311e-03, 9.951786e-05
 4.156698e-01, 9.087972e-03, 9.834178e-05
 4.175585e-01, 8.796025e-03, 9.679413e-05
 4.194471e-01, 8.538899e-03, 9.636331e-05
 4.213358e-01, 8.270428e-03, 9.442826e-05
 4.232244e-01, 8.239481e-03, 9.555631e-05
 4.251131e-01, 7.983126e-03, 9.297172e-05
 4.270017e-01, 7.696882e-03, 9.210725e-05
 4.288904e-01, 7.668954e-03, 9.198404e-05
 4.307790e-01, 7.406473e-03, 9.032956e-05
 4.326677e-01, 7.269680e-03, 9.001018e-05
 4.345563e-01, 7.014401e-03, 8.911892e-05
 4.364450e-01, 7.132250e-03, 8.898643e-05
 4.383336e-01, 6.782225e-03, 8.724607e-05
 4.402223e-01, 6.813553e-03, 8.745392e-05
 4.421109e-01, 6.799972e-03, 8.759040e-05
 4.439996e-01, 6.688105e-03, 8.775107e-05
 4.458882e-01, 6.636156e-03, 8.741627e-05
 4.477769e-01, 6.715191e-03, 8.699048e-05
 4.496655e-01, 6.615292e-03, 8.674347e-05
 4.515542e-01, 6.553819e-03, 8.652707e-05
 4.534428e-01, 6.574891e-03, 8.740919e-05
 4.553315e-01, 6.476887e-03, 8.709711e-05
 4.572201e-01, 6.413685e-03, 8.565295e-05
 4.591088e-01, 6.471304e-03, 8.699844e-05
 4.609974e-01, 6.306442e-03, 8.509022e-05
 4.628861e-01, 6.428369e-03, 8.639001e-05
 4.647747e-01, 6.293378e-03, 8.607348e-05
 4.666634e-01, 6.371233e-03, 8.623960e-05
 4.685520e-01, 6.286550e-03, 8.637686e-05
 4.704407e-01, 6.156397e-03, 8.417640e-05
 4.723293e-01, 6.110788e-03, 8.473324e-05
 4.742180e-01, 6.093189e-03, 8.607608e-05
 4.761066e-01, 6.161341e-03, 8.843524e-05
 4.779953e-01, 6.152315e-03, 8.887511e-05
 4.798839e-01, 6.077808e-03, 8.817682e-05
 4.817726e-01, 6.151316e-03, 8.994651e-05
 4.836612e-01, 5.993833e-03, 8.918249e-05
 4.855499e-01, 6.178823e-03, 9.172199e-05
 4.874385e-01, 6.200389e-03, 9.198134e-05
 4.893272e-01, 6.137033e-03, 9.263512e-05
 4.912158e-01, 6.154155e-03, 9.281957e-05
 4.931045e-01, 6.023891e-03, 9.198120e-05
 4.949931e-01, 6.017732e-03, 9.349220e-05
 4.968818e-01, 6.137613e-03, 9.534318e-05
 4.987704e-01, 5.980174e-03, 9.371517e-05
 5.006591e-01, 6.122005e-03, 9.513517e-05
 5.025477e-01, 6.139687e-03, 9.648779e-05
 5.044364e-01, 6.042681e-03, 9.615815e-05
 5.063250e-01, 6.042965e-03, 9.715176e-05
 5.082137e-01, 6.029074e-03, 9.738257e-05
 5.101023e-01, 6.143543e-03, 9.786237e-05
 5.119909e-01, 5.859241e-03, 9.737044e-05
 5.138796e-01, 6.070494e-03, 9.791119e-05
 5.157682e-01, 5.917047e-03, 9.740738e-05
 5.176569e-01, 6.249608e-03, 1.022330e-04
 5.195455e-01, 6.034860e-03, 9.986236e-05
 5.214342e-01, 6.014788e-03, 9.852368e-05
 5.233228e-01, 5.835945e-03, 9.899969e-05
 5.252115e-01, 6.119614e-03, 1.018240e-04
 5.271001e-01, 5.988017e-03, 1.001767e-04
 5.289888e-01, 6.025758e-03, 1.020729e-04
 5.308774e-01, 5.892459e-03, 9.933148e-05
 5.327661e-01, 5.924656e-03, 1.014877e-04
 5.346547e-01, 6.028746e-03, 1.019335e-04
 5.365434e-01, 5.895208e-03, 1.009981e-04
 5.384320e-01, 5.895969e-03, 1.025115e-04
 5.403207e-01, 6.045292e-03, 1.030115e-04
 5.422093e-01, 5.801096e-03, 9.959054e-05
 5.440980e-01, 6.089997e-03, 1.037432e-04
 5.459866e-01, 5.886097e-03, 1.015448e-04
 5.478753e-01, 5.863402e-03, 1.019452e-04
 5.497639e-01, 6.001669e-03, 1.032166e-04
 5.516526e-01, 5.933968e-03, 1.016621e-04
 5.535412e-01, 5.819149e-03, 1.019179e-04
 5.554299e-01, 5.839422e-03, 1.025724e-04
 5.573185e-01, 5.809677e-03, 1.019870e-04
 5.592072e-01, 5.978798e-03, 1.042197e-04
 5.610958e-01, 6.012394e-03, 1.048691e-04
 5.629845e-01, 5.801972e-03, 1.028227e-04
 5.648731e-01, 5.959816e-03, 1.046387e-04
 5.667618e-01, 5.838002e-03, 1.050571e-04
 5.686504e-01, 5.800013e-03, 1.031776e-04
 5.705391e-01, 5.852111e-03, 1.055677e-04
 5.724277e-01, 5.825568e-03, 1.054844e-04
 5.743164e-01, 5.778843e-03, 1.028824e-04
 5.762050e-01, 5.851746e-03, 1.058890e-04
 5.780937e-01, 6.046001e-03, 1.091720e-04
 5.799823e-01, 5.719896e-03, 1.047101e-04
 5.818710e-01, 5.833985e-03, 1.051041e-04
 5.837596e-01, 5.787723e-03, 1.061655e-04
 5.856483e-01, 5.827844e-03, 1.065435e-04
 5.875369e-01, 5.783251e-03, 1.071340e-04
 5.894256e-01, 5.866327e-03, 1.083019e-04
 5.913142e-01, 5.818921e-03, 1.074084e-04
 5.932029e-01, 5.974186e-03, 1.082998e-04
 5.950915e-01, 5.917461e-03, 1.134204e-04
 5.969802e-01, 5.937158e-03, 1.159256e-04
 5.988688e-01, 5.886865e-03, 1.193229e-04
 6.007575e-01, 5.723636e-03, 1.206648e-04
 6.026461e-01, 5.968365e-03, 1.256846e-04
 6.045348e-01, 6.093944e-03, 1.291333e-04
 6.064234e-01, 5.947247e-03, 1.292574e-04
 6.083121e-01, 5.816970e-03, 1.312247e-04
 6.102007e-01, 5.851034e-03, 1.348365e-04
 6.120894e-01, 5.554200e-03, 1.322804e-04
 6.139780e-01, 5.974522e-03, 1.407817e-04
 6.158667e-01, 5.928367e-03, 1.412718e-04
 6.177553e-01, 5.603435e-03, 1.413729e-04
 6.196440e-01, 5.874638e-03, 1.468660e-04
 6.215326e-01, 5.696592e-03, 1.484273e-04
 6.234212e-01, 5.833778e-03, 1.493877e-04
 6.253099e-01, 5.707580e-03, 1.507223e-04
 6.271985e-01, 5.923345e-03, 1.593933e-04
 6.290872e-01, 5.990755e-03, 1.583659e-04
 6.309758e-01, 6.099289e-03, 1.633022e-04
 6.328645e-01, 5.688952e-03, 1.624090e-04
 6.347531e-01, 5.950479e-03, 1.652911e-04
 6.366418e-01, 5.833612e-03, 1.667427e-04
 6.385304e-01, 5.953262e-03, 1.745682e-04
 6.404191e-01, 5.640915e-03, 1.687053e-04
 6.423077e-01, 5.887924e-03, 1.746152e-04
 6.441964e-01, 5.978789e-03, 1.855729e-04
 6.460850e-01, 6.143331e-03, 1.839782e-04
 6.479737e-01, 5.687021e-03, 1.806542e-04
 6.498623e-01, 5.974225e-03, 1.916234e-04
 6.517510e-01, 5.583134e-03, 1.890688e-04
 6.536396e-01, 5.864135e-03, 1.911653e-04
 6.555283e-01, 6.007312e-03, 2.033167e-04
 6.574169e-01, 5.993024e-03, 2.094132e-04
 6.593056e-01, 6.131454e-03, 2.075183e-04
 6.611942e-01, 6.050659e-03, 2.162329e-04
 6.630829e-01, 6.001892e-03, 2.203364e-04
 6.649715e-01, 6.222181e-03, 2.230760e-04
 6.668602e-01, 5.851355e-03, 2.277637e-04
 6.687488e-01, 5.914721e-03, 2.319944e-04
 6.706375e-01, 5.794530e-03, 2.327139e-04
 6.725261e-01, 6.091395e-03, 2.444393e-04
 6.744148e-01, 6.209707e-03, 2.485872e-04
 6.763034e-01, 5.889438e-03, 2.447567e-04
 6.781921e-01, 6.132961e-03, 2.564320e-04
 6.800807e-01, 6.241645e-03, 2.587245e-04
 6.819694e-01, 6.009674e-03, 2.578998e-04
 6.838580e-01, 6.125668e-03, 2.668383e-04
 6.857467e-01, 5.415148e-03, 2.530333e-04
 6.876353e-01, 6.310089e-03, 2.767157e-04
 6.895240e-01, 5.944751e-03, 2.721915e-04
 6.914126e-01, 5.493325e-03, 2.677283e-04
 6.933013e-01, 5.994410e-03, 2.810223e-04
 6.951899e-01, 5.545012e-03, 2.797089e-04
 6.970786e-01, 5.532799e-03, 2.780336e-04
 6.989672e-01, 6.452328e-03, 3.097216e-04
 7.008559e-01, 6.507754e-03, 3.179246e-04
 7.027445e-01, 5.965595e-03, 3.044305e-04
 7.046332e-01, 6.470292e-03, 3.301857e-04
 7.065218e-01, 5.843373e-03, 3.216671e-04
 7.084105e-01, 6.426004e-03, 3.331728e-04
 7.102991e-01, 6.326750e-03, 3.482761e-04
 7.121878e-01, 5.463492e-03, 3.259246e-04
 7.140764e-01, 6.177546e-03, 3.566608e-04
 7.159651e-01, 6.521499e-03, 3.777803e-04
 7.178537e-01, 6.226390e-03, 3.720980e-04
 7.197424e-01, 6.244329e-03, 3.918040e-04
 7.216310e-01, 6.319657e-03, 3.942094e-04
 7.235197e-01, 6.686398e-03, 4.245867e-04
 7.254083e-01, 5.251309e-03, 3.958323e-04
 7.272970e-01, 6.356876e-03, 4.355660e-04
 7.291856e-01, 5.745802e-03, 4.381133e-04
 7.310743e-01, 5.716286e-03, 4.423395e-04
 7.329629e-01, 6.697918e-03, 5.183005e-04
 7.348515e-01, 6.127035e-03, 5.105862e-04
 7.367402e-01, 6.161546e-03, 5.283482e-04
 7.386288e-01, 6.087592e-03, 5.627981e-04
 7.405175e-01, 6.170612e-03, 6.139989e-04
 7.424061e-01, 6.893888e-03, 6.792750e-04
 7.442948e-01, 5.401662e-03, 6.322167e-04
 7.461834e-01, 5.625100e-03, 7.261973e-04
 7.480721e-01, 6.393815e-03, 9.042220e-04
 7.499607e-01, 8.285693e-03, 1.138127e-03
 7.518494e-01, 4.691236e-03, 1.048992e-03
 7.537380e-01, 8.915674e-03, 2.045396e-03
 7.556267e-01, NaN, NaN
 7.575153e-01, NaN, NaN
#HEADERS
"latest_0021298_caz","KF LIPNOR2 h2oON 45, conf 22, I0=22, trans=15749049.745538, time=1800"
