1,"Number of Datasets"
3,"Number of Columns per Dataset"
400,"Maximum Number of Rows for Any Dataset"
#DATASETS q-units: Angstrom I-units: Absolute intensity(cm^-1) X thickness(cm) 
"latest_0021231_caz","KF LIPNOR2 DRY 45, conf 22, I0=22, trans=15597597.936537, time=1800","",
q,I,dI,
 3.944325e-03, NaN, NaN
 5.832974e-03, NaN, NaN
 7.721623e-03, NaN, NaN
 9.610272e-03, NaN, NaN
 1.149892e-02, NaN, NaN
 1.338757e-02, 8.594340e+00, 9.621955e-03
 1.527622e-02, 5.692373e+00, 6.149362e-03
 1.716487e-02, 3.829600e+00, 4.922283e-03
 1.905352e-02, 2.822359e+00, 3.773585e-03
 2.094217e-02, 2.136748e+00, 3.283418e-03
 2.283082e-02, 1.619942e+00, 2.580052e-03
 2.471947e-02, 1.262165e+00, 2.158304e-03
 2.660811e-02, 1.023522e+00, 1.943591e-03
 2.849676e-02, 8.425345e-01, 1.694226e-03
 3.038541e-02, 7.128915e-01, 1.495830e-03
 3.227406e-02, 6.156307e-01, 1.373926e-03
 3.416271e-02, 5.375680e-01, 1.195221e-03
 3.605136e-02, 4.930471e-01, 1.129702e-03
 3.794001e-02, 4.772709e-01, 1.073799e-03
 3.982866e-02, 5.045149e-01, 1.094127e-03
 4.171731e-02, 5.380248e-01, 1.126539e-03
 4.360596e-02, 5.405653e-01, 1.073482e-03
 4.549461e-02, 4.764363e-01, 9.720741e-04
 4.738326e-02, 3.828280e-01, 8.524926e-04
 4.927190e-02, 3.017635e-01, 7.605078e-04
 5.116055e-02, 2.548055e-01, 6.826245e-04
 5.304920e-02, 2.232422e-01, 6.275429e-04
 5.493785e-02, 1.993091e-01, 5.802580e-04
 5.682650e-02, 1.828986e-01, 5.389966e-04
 5.871515e-02, 1.680297e-01, 5.076078e-04
 6.060380e-02, 1.573549e-01, 4.950471e-04
 6.249245e-02, 1.470472e-01, 4.901899e-04
 6.438110e-02, 1.372964e-01, 4.795973e-04
 6.626975e-02, 1.306183e-01, 4.519312e-04
 6.815840e-02, 1.226611e-01, 4.440920e-04
 7.004705e-02, 1.175572e-01, 4.262508e-04
 7.193569e-02, 1.106712e-01, 4.119898e-04
 7.382434e-02, 1.072343e-01, 4.119341e-04
 7.571299e-02, 1.037438e-01, 4.027891e-04
 7.760164e-02, 1.010520e-01, 3.899617e-04
 7.949029e-02, 1.015296e-01, 3.830187e-04
 8.137894e-02, 1.035213e-01, 3.910363e-04
 8.326759e-02, 1.100211e-01, 3.958669e-04
 8.515624e-02, 1.184899e-01, 4.130449e-04
 8.704489e-02, 1.235148e-01, 4.255768e-04
 8.893354e-02, 1.203381e-01, 4.096641e-04
 9.082219e-02, 1.130358e-01, 3.942984e-04
 9.271084e-02, 1.031504e-01, 3.608400e-04
 9.459948e-02, 9.648972e-02, 3.306731e-04
 9.648813e-02, 9.297322e-02, 3.332288e-04
 9.837678e-02, 9.124344e-02, 3.179755e-04
 1.002654e-01, 8.971145e-02, 3.127050e-04
 1.021541e-01, 8.930137e-02, 3.094685e-04
 1.040427e-01, 9.098716e-02, 2.986478e-04
 1.059314e-01, 9.234213e-02, 3.016107e-04
 1.078200e-01, 9.432896e-02, 3.033493e-04
 1.097087e-01, 9.661027e-02, 3.036783e-04
 1.115973e-01, 1.006006e-01, 3.076917e-04
 1.134860e-01, 1.055563e-01, 3.101071e-04
 1.153746e-01, 1.107807e-01, 3.106809e-04
 1.172633e-01, 1.196942e-01, 3.191347e-04
 1.191519e-01, 1.298873e-01, 3.310437e-04
 1.210406e-01, 1.467356e-01, 3.511255e-04
 1.229292e-01, 1.721988e-01, 3.760515e-04
 1.248179e-01, 2.063717e-01, 4.058820e-04
 1.267065e-01, 2.498329e-01, 4.374969e-04
 1.285952e-01, 2.774163e-01, 4.628062e-04
 1.304838e-01, 2.674454e-01, 4.454659e-04
 1.323725e-01, 2.259878e-01, 4.106420e-04
 1.342611e-01, 1.716434e-01, 3.578856e-04
 1.361498e-01, 1.265712e-01, 2.956794e-04
 1.380384e-01, 9.319447e-02, 2.573088e-04
 1.399271e-01, 7.371560e-02, 2.264445e-04
 1.418157e-01, 6.172612e-02, 2.026783e-04
 1.437044e-01, 5.357279e-02, 1.913924e-04
 1.455930e-01, 4.828317e-02, 1.792636e-04
 1.474817e-01, 4.450107e-02, 1.698539e-04
 1.493703e-01, 4.158774e-02, 1.642041e-04
 1.512590e-01, 3.901941e-02, 1.555608e-04
 1.531476e-01, 3.663773e-02, 1.526506e-04
 1.550363e-01, 3.521601e-02, 1.466583e-04
 1.569249e-01, 3.365394e-02, 1.440348e-04
 1.588136e-01, 3.218885e-02, 1.402208e-04
 1.607022e-01, 3.108610e-02, 1.351416e-04
 1.625909e-01, 3.039052e-02, 1.324611e-04
 1.644795e-01, 2.986680e-02, 1.309406e-04
 1.663682e-01, 2.980820e-02, 1.308158e-04
 1.682568e-01, 3.044516e-02, 1.314565e-04
 1.701455e-01, 3.067283e-02, 1.315776e-04
 1.720341e-01, 3.074552e-02, 1.295596e-04
 1.739227e-01, 2.942629e-02, 1.257270e-04
 1.758114e-01, 2.686810e-02, 1.193419e-04
 1.777000e-01, 2.430256e-02, 1.152764e-04
 1.795887e-01, 2.194985e-02, 1.080173e-04
 1.814773e-01, 2.010858e-02, 1.031168e-04
 1.833660e-01, 1.841180e-02, 9.634404e-05
 1.852546e-01, 1.732783e-02, 9.394296e-05
 1.871433e-01, 1.635091e-02, 9.079777e-05
 1.890319e-01, 1.556703e-02, 8.831942e-05
 1.909206e-01, 1.506209e-02, 8.682364e-05
 1.928092e-01, 1.448719e-02, 8.478275e-05
 1.946979e-01, 1.394975e-02, 8.154542e-05
 1.965865e-01, 1.367507e-02, 8.147287e-05
 1.984752e-01, 1.330204e-02, 7.954038e-05
 2.003638e-01, 1.290514e-02, 7.793152e-05
 2.022525e-01, 1.273588e-02, 7.728517e-05
 2.041411e-01, 1.266271e-02, 7.679588e-05
 2.060298e-01, 1.257198e-02, 7.634539e-05
 2.079184e-01, 1.273643e-02, 7.537534e-05
 2.098071e-01, 1.306905e-02, 7.691536e-05
 2.116957e-01, 1.351470e-02, 7.739131e-05
 2.135844e-01, 1.415206e-02, 7.893625e-05
 2.154730e-01, 1.431245e-02, 8.013810e-05
 2.173617e-01, 1.414167e-02, 7.874002e-05
 2.192503e-01, 1.332873e-02, 7.447381e-05
 2.211390e-01, 1.246196e-02, 7.223992e-05
 2.230276e-01, 1.150514e-02, 6.996497e-05
 2.249163e-01, 1.063209e-02, 6.701180e-05
 2.268049e-01, 9.886241e-03, 6.404935e-05
 2.286936e-01, 9.487857e-03, 6.252168e-05
 2.305822e-01, 9.105660e-03, 6.047903e-05
 2.324709e-01, 8.724975e-03, 5.885053e-05
 2.343595e-01, 8.388595e-03, 5.825835e-05
 2.362482e-01, 8.154984e-03, 5.704181e-05
 2.381368e-01, 7.943011e-03, 5.579988e-05
 2.400255e-01, 7.705736e-03, 5.520599e-05
 2.419141e-01, 7.609591e-03, 5.386182e-05
 2.438028e-01, 7.367929e-03, 5.277637e-05
 2.456914e-01, 7.200784e-03, 5.275193e-05
 2.475801e-01, 7.147977e-03, 5.198700e-05
 2.494687e-01, 7.054803e-03, 5.140734e-05
 2.513574e-01, 6.875300e-03, 5.063312e-05
 2.532460e-01, 6.813997e-03, 5.019936e-05
 2.551347e-01, 6.848755e-03, 5.130910e-05
 2.570233e-01, 6.901459e-03, 5.099755e-05
 2.589120e-01, 6.870018e-03, 5.199489e-05
 2.608006e-01, 6.900470e-03, 5.221489e-05
 2.626893e-01, 6.852123e-03, 5.205963e-05
 2.645779e-01, 6.775432e-03, 5.094742e-05
 2.664666e-01, 6.726115e-03, 5.100814e-05
 2.683552e-01, 6.645691e-03, 5.090131e-05
 2.702439e-01, 6.566028e-03, 5.094539e-05
 2.721325e-01, 6.485932e-03, 5.046234e-05
 2.740212e-01, 6.243627e-03, 4.965906e-05
 2.759098e-01, 6.240579e-03, 4.860789e-05
 2.777985e-01, 6.180026e-03, 4.916876e-05
 2.796871e-01, 6.070972e-03, 4.887846e-05
 2.815758e-01, 6.042924e-03, 4.843648e-05
 2.834644e-01, 6.142789e-03, 4.881382e-05
 2.853530e-01, 6.203733e-03, 4.786996e-05
 2.872417e-01, 6.220871e-03, 4.726909e-05
 2.891303e-01, 6.197620e-03, 4.716191e-05
 2.910190e-01, 6.376691e-03, 4.729447e-05
 2.929076e-01, 6.492463e-03, 4.749664e-05
 2.947963e-01, 6.593446e-03, 4.805443e-05
 2.966849e-01, 6.838648e-03, 4.813086e-05
 2.985736e-01, 6.999203e-03, 4.834977e-05
 3.004622e-01, 7.159224e-03, 4.880054e-05
 3.023509e-01, 7.102503e-03, 4.846911e-05
 3.042395e-01, 7.059992e-03, 4.840609e-05
 3.061282e-01, 6.892222e-03, 4.734379e-05
 3.080168e-01, 6.773695e-03, 4.639626e-05
 3.099055e-01, 6.603509e-03, 4.586655e-05
 3.117941e-01, 6.414136e-03, 4.504615e-05
 3.136828e-01, 6.412956e-03, 4.467685e-05
 3.155714e-01, 6.300754e-03, 4.538911e-05
 3.174601e-01, 6.080552e-03, 4.451900e-05
 3.193487e-01, 6.045138e-03, 4.396609e-05
 3.212374e-01, 5.968709e-03, 4.434669e-05
 3.231260e-01, 5.887295e-03, 4.390204e-05
 3.250147e-01, 5.786545e-03, 4.326396e-05
 3.269033e-01, 5.785046e-03, 4.355943e-05
 3.287920e-01, 5.606077e-03, 4.277828e-05
 3.306806e-01, 5.581746e-03, 4.211110e-05
 3.325693e-01, 5.407473e-03, 4.193352e-05
 3.344579e-01, 5.416011e-03, 4.201995e-05
 3.363466e-01, 5.308546e-03, 4.110708e-05
 3.382352e-01, 5.385867e-03, 4.207837e-05
 3.401239e-01, 5.305529e-03, 4.154592e-05
 3.420125e-01, 5.346637e-03, 4.131049e-05
 3.439012e-01, 5.396864e-03, 4.160553e-05
 3.457898e-01, 5.395115e-03, 4.166764e-05
 3.476785e-01, 5.457219e-03, 4.209459e-05
 3.495671e-01, 5.527038e-03, 4.224655e-05
 3.514558e-01, 5.513811e-03, 4.178209e-05
 3.533444e-01, 5.498110e-03, 4.193976e-05
 3.552331e-01, 5.617600e-03, 4.204668e-05
 3.571217e-01, 5.556155e-03, 4.214897e-05
 3.590104e-01, 5.656625e-03, 4.256472e-05
 3.608990e-01, 5.623999e-03, 4.185028e-05
 3.627877e-01, 5.719945e-03, 4.237229e-05
 3.646763e-01, 5.840371e-03, 4.293578e-05
 3.665650e-01, 5.948793e-03, 4.286813e-05
 3.684536e-01, 6.017094e-03, 4.318242e-05
 3.703423e-01, 6.129815e-03, 4.387515e-05
 3.722309e-01, 6.313723e-03, 4.423961e-05
 3.741196e-01, 6.427305e-03, 4.469013e-05
 3.760082e-01, 6.697758e-03, 4.525926e-05
 3.778969e-01, 6.979238e-03, 4.604677e-05
 3.797855e-01, 7.146199e-03, 4.709607e-05
 3.816742e-01, 7.406221e-03, 4.787482e-05
 3.835628e-01, 7.693503e-03, 4.842801e-05
 3.854515e-01, 7.947512e-03, 4.878437e-05
 3.873401e-01, 8.157193e-03, 5.017650e-05
 3.892288e-01, 8.245991e-03, 4.980949e-05
 3.911174e-01, 8.361482e-03, 5.027286e-05
 3.930061e-01, 8.354964e-03, 5.050276e-05
 3.948947e-01, 8.358174e-03, 5.017594e-05
 3.967833e-01, 8.311125e-03, 4.957825e-05
 3.986720e-01, 8.271490e-03, 5.024109e-05
 4.005606e-01, 8.198584e-03, 4.917626e-05
 4.024493e-01, 7.998907e-03, 4.879106e-05
 4.043379e-01, 7.929116e-03, 4.872472e-05
 4.062266e-01, 7.843649e-03, 4.888266e-05
 4.081152e-01, 7.680806e-03, 4.843067e-05
 4.100039e-01, 7.455814e-03, 4.849419e-05
 4.118925e-01, 7.369387e-03, 4.846184e-05
 4.137812e-01, 6.994588e-03, 4.727260e-05
 4.156698e-01, 6.909753e-03, 4.682238e-05
 4.175585e-01, 6.693539e-03, 4.610536e-05
 4.194471e-01, 6.450288e-03, 4.573177e-05
 4.213358e-01, 6.289140e-03, 4.496259e-05
 4.232244e-01, 6.169101e-03, 4.514796e-05
 4.251131e-01, 5.932837e-03, 4.376362e-05
 4.270017e-01, 5.875589e-03, 4.394200e-05
 4.288904e-01, 5.740103e-03, 4.345322e-05
 4.307790e-01, 5.555589e-03, 4.271761e-05
 4.326677e-01, 5.520821e-03, 4.283054e-05
 4.345563e-01, 5.341626e-03, 4.246480e-05
 4.364450e-01, 5.060659e-03, 4.092906e-05
 4.383336e-01, 5.035732e-03, 4.104959e-05
 4.402223e-01, 4.867146e-03, 4.035965e-05
 4.421109e-01, 4.740725e-03, 3.993402e-05
 4.439996e-01, 4.705902e-03, 4.019204e-05
 4.458882e-01, 4.634179e-03, 3.988761e-05
 4.477769e-01, 4.590569e-03, 3.927294e-05
 4.496655e-01, 4.484591e-03, 3.899792e-05
 4.515542e-01, 4.459139e-03, 3.897158e-05
 4.534428e-01, 4.315931e-03, 3.866943e-05
 4.553315e-01, 4.383182e-03, 3.912308e-05
 4.572201e-01, 4.312181e-03, 3.834906e-05
 4.591088e-01, 4.253934e-03, 3.851489e-05
 4.609974e-01, 4.245237e-03, 3.812028e-05
 4.628861e-01, 4.237196e-03, 3.829747e-05
 4.647747e-01, 4.182003e-03, 3.831222e-05
 4.666634e-01, 4.124586e-03, 3.788810e-05
 4.685520e-01, 4.148878e-03, 3.831548e-05
 4.704407e-01, 4.179276e-03, 3.787000e-05
 4.723293e-01, 4.091207e-03, 3.785721e-05
 4.742180e-01, 4.073860e-03, 3.843093e-05
 4.761066e-01, 4.097122e-03, 3.937720e-05
 4.779953e-01, 4.000507e-03, 3.913236e-05
 4.798839e-01, 3.980824e-03, 3.896594e-05
 4.817726e-01, 3.980567e-03, 3.950849e-05
 4.836612e-01, 3.913183e-03, 3.934686e-05
 4.855499e-01, 3.976724e-03, 4.017918e-05
 4.874385e-01, 3.840095e-03, 3.952565e-05
 4.893272e-01, 3.888394e-03, 4.026237e-05
 4.912158e-01, 3.862981e-03, 4.015451e-05
 4.931045e-01, 3.884758e-03, 4.033297e-05
 4.949931e-01, 3.817037e-03, 4.065742e-05
 4.968818e-01, 3.769377e-03, 4.079833e-05
 4.987704e-01, 3.820820e-03, 4.090242e-05
 5.006591e-01, 3.810561e-03, 4.098325e-05
 5.025477e-01, 3.746095e-03, 4.115346e-05
 5.044364e-01, 3.767496e-03, 4.145867e-05
 5.063250e-01, 3.689575e-03, 4.145067e-05
 5.082137e-01, 3.696909e-03, 4.163830e-05
 5.101023e-01, 3.721497e-03, 4.158942e-05
 5.119909e-01, 3.786232e-03, 4.273934e-05
 5.138796e-01, 3.765802e-03, 4.210821e-05
 5.157682e-01, 3.827149e-03, 4.277546e-05
 5.176569e-01, 3.813406e-03, 4.360528e-05
 5.195455e-01, 3.763643e-03, 4.306159e-05
 5.214342e-01, 3.730492e-03, 4.236734e-05
 5.233228e-01, 3.757877e-03, 4.337776e-05
 5.252115e-01, 3.783498e-03, 4.371723e-05
 5.271001e-01, 3.768530e-03, 4.339390e-05
 5.289888e-01, 3.785968e-03, 4.417847e-05
 5.308774e-01, 3.847173e-03, 4.382553e-05
 5.327661e-01, 3.850608e-03, 4.467496e-05
 5.346547e-01, 3.803572e-03, 4.420965e-05
 5.365434e-01, 3.711358e-03, 4.375701e-05
 5.384320e-01, 3.723550e-03, 4.448270e-05
 5.403207e-01, 3.702679e-03, 4.402028e-05
 5.422093e-01, 3.753837e-03, 4.374400e-05
 5.440980e-01, 3.763725e-03, 4.453255e-05
 5.459866e-01, 3.740743e-03, 4.420188e-05
 5.478753e-01, 3.776968e-03, 4.467674e-05
 5.497639e-01, 3.820139e-03, 4.496460e-05
 5.516526e-01, 3.741991e-03, 4.408142e-05
 5.535412e-01, 3.806315e-03, 4.500814e-05
 5.554299e-01, 3.787175e-03, 4.510460e-05
 5.573185e-01, 3.711995e-03, 4.451332e-05
 5.592072e-01, 3.799156e-03, 4.536326e-05
 5.610958e-01, 3.760801e-03, 4.528786e-05
 5.629845e-01, 3.831880e-03, 4.562732e-05
 5.648731e-01, 3.793212e-03, 4.558241e-05
 5.667618e-01, 3.717382e-03, 4.577515e-05
 5.686504e-01, 3.723416e-03, 4.513978e-05
 5.705391e-01, 3.700267e-03, 4.583627e-05
 5.724277e-01, 3.679940e-03, 4.577805e-05
 5.743164e-01, 3.689492e-03, 4.488712e-05
 5.762050e-01, 3.609942e-03, 4.541257e-05
 5.780937e-01, 3.612876e-03, 4.608095e-05
 5.799823e-01, 3.622809e-03, 4.550248e-05
 5.818710e-01, 3.643661e-03, 4.535483e-05
 5.837596e-01, 3.610314e-03, 4.578462e-05
 5.856483e-01, 3.548321e-03, 4.539440e-05
 5.875369e-01, 3.645009e-03, 4.644171e-05
 5.894256e-01, 3.504057e-03, 4.570423e-05
 5.913142e-01, 3.510614e-03, 4.555399e-05
 5.932029e-01, 3.579973e-03, 4.577686e-05
 5.950915e-01, 3.633589e-03, 4.852988e-05
 5.969802e-01, 3.518062e-03, 4.872587e-05
 5.988688e-01, 3.545676e-03, 5.056488e-05
 6.007575e-01, 3.535119e-03, 5.178029e-05
 6.026461e-01, 3.505281e-03, 5.259367e-05
 6.045348e-01, 3.668090e-03, 5.470497e-05
 6.064234e-01, 3.534622e-03, 5.441101e-05
 6.083121e-01, 3.469546e-03, 5.533771e-05
 6.102007e-01, 3.650177e-03, 5.815215e-05
 6.120894e-01, 3.498895e-03, 5.732813e-05
 6.139780e-01, 3.602175e-03, 5.968907e-05
 6.158667e-01, 3.605350e-03, 6.015605e-05
 6.177553e-01, 3.517864e-03, 6.116406e-05
 6.196440e-01, 3.621280e-03, 6.296211e-05
 6.215326e-01, 3.516800e-03, 6.367921e-05
 6.234212e-01, 3.437626e-03, 6.261625e-05
 6.253099e-01, 3.622973e-03, 6.556947e-05
 6.271985e-01, 3.525701e-03, 6.714708e-05
 6.290872e-01, 3.422511e-03, 6.535985e-05
 6.309758e-01, 3.669601e-03, 6.916392e-05
 6.328645e-01, 3.436563e-03, 6.892451e-05
 6.347531e-01, 3.620829e-03, 7.040365e-05
 6.366418e-01, 3.542532e-03, 7.095004e-05
 6.385304e-01, 3.551461e-03, 7.362222e-05
 6.404191e-01, 3.526150e-03, 7.283195e-05
 6.423077e-01, 3.532589e-03, 7.385249e-05
 6.441964e-01, 3.647588e-03, 7.914592e-05
 6.460850e-01, 3.646846e-03, 7.739999e-05
 6.479737e-01, 3.658089e-03, 7.911347e-05
 6.498623e-01, 3.463479e-03, 7.966758e-05
 6.517510e-01, 3.476218e-03, 8.146142e-05
 6.536396e-01, 3.589689e-03, 8.166825e-05
 6.555283e-01, 3.670385e-03, 8.677737e-05
 6.574169e-01, 3.610734e-03, 8.875575e-05
 6.593056e-01, 3.394436e-03, 8.430943e-05
 6.611942e-01, 3.654092e-03, 9.175461e-05
 6.630829e-01, 3.533111e-03, 9.230782e-05
 6.649715e-01, 3.550530e-03, 9.201228e-05
 6.668602e-01, 3.605473e-03, 9.762366e-05
 6.687488e-01, 3.687022e-03, 1.000152e-04
 6.706375e-01, 3.611328e-03, 1.003147e-04
 6.725261e-01, 3.570888e-03, 1.021924e-04
 6.744148e-01, 3.453623e-03, 1.012275e-04
 6.763034e-01, 3.536138e-03, 1.035571e-04
 6.781921e-01, 3.561187e-03, 1.066970e-04
 6.800807e-01, 3.424530e-03, 1.046420e-04
 6.819694e-01, 3.633070e-03, 1.094914e-04
 6.838580e-01, 3.448271e-03, 1.093175e-04
 6.857467e-01, 3.486395e-03, 1.108609e-04
 6.876353e-01, 3.549249e-03, 1.133188e-04
 6.895240e-01, 3.429671e-03, 1.128890e-04
 6.914126e-01, 3.411836e-03, 1.152095e-04
 6.933013e-01, 3.967271e-03, 1.248335e-04
 6.951899e-01, 3.664068e-03, 1.241522e-04
 6.970786e-01, 3.724111e-03, 1.245529e-04
 6.989672e-01, 3.714549e-03, 1.283170e-04
 7.008559e-01, 3.732395e-03, 1.314680e-04
 7.027445e-01, 3.622136e-03, 1.295273e-04
 7.046332e-01, 3.622124e-03, 1.348950e-04
 7.065218e-01, 3.537202e-03, 1.366540e-04
 7.084105e-01, 3.589767e-03, 1.359721e-04
 7.102991e-01, 3.612595e-03, 1.437013e-04
 7.121878e-01, 3.588311e-03, 1.442264e-04
 7.140764e-01, 3.450376e-03, 1.455453e-04
 7.159651e-01, 3.360267e-03, 1.480711e-04
 7.178537e-01, 3.759212e-03, 1.578720e-04
 7.197424e-01, 3.818785e-03, 1.673040e-04
 7.216310e-01, 3.665775e-03, 1.639384e-04
 7.235197e-01, 3.376177e-03, 1.647406e-04
 7.254083e-01, 3.727386e-03, 1.820947e-04
 7.272970e-01, 3.808407e-03, 1.840863e-04
 7.291856e-01, 3.794745e-03, 1.944107e-04
 7.310743e-01, 3.612735e-03, 1.920147e-04
 7.329629e-01, 3.766772e-03, 2.122336e-04
 7.348515e-01, 3.818473e-03, 2.200931e-04
 7.367402e-01, 3.768690e-03, 2.256256e-04
 7.386288e-01, 3.723114e-03, 2.403260e-04
 7.405175e-01, 3.934559e-03, 2.677128e-04
 7.424061e-01, 3.911276e-03, 2.793769e-04
 7.442948e-01, 3.463695e-03, 2.764329e-04
 7.461834e-01, 3.521965e-03, 3.137615e-04
 7.480721e-01, 4.079522e-03, 3.943822e-04
 7.499607e-01, 4.288211e-03, 4.470770e-04
 7.518494e-01, 3.846408e-03, 5.186495e-04
 7.537380e-01, 4.197177e-03, 7.662961e-04
 7.556267e-01, NaN, NaN
 7.575153e-01, NaN, NaN
#HEADERS
"latest_0021231_caz","KF LIPNOR2 DRY 45, conf 22, I0=22, trans=15597597.936537, time=1800"
