1,"Number of Datasets"
3,"Number of Columns per Dataset"
400,"Maximum Number of Rows for Any Dataset"
#DATASETS q-units: Angstrom I-units: Absolute intensity(cm^-1) X thickness(cm) 
"latest_0021233_caz","KF LIPNOR2 DRY 32, conf 22, I0=22, trans=15540182.674880, time=1800","",
q,I,dI,
 3.944325e-03, NaN, NaN
 5.832974e-03, NaN, NaN
 7.721623e-03, NaN, NaN
 9.610272e-03, NaN, NaN
 1.149892e-02, NaN, NaN
 1.338757e-02, 8.165687e+00, 9.352060e-03
 1.527622e-02, 5.433181e+00, 5.990517e-03
 1.716487e-02, 3.649214e+00, 4.791190e-03
 1.905352e-02, 2.710041e+00, 3.687141e-03
 2.094217e-02, 2.047993e+00, 3.205292e-03
 2.283082e-02, 1.562547e+00, 2.526673e-03
 2.471947e-02, 1.216819e+00, 2.113106e-03
 2.660811e-02, 9.897795e-01, 1.905809e-03
 2.849676e-02, 8.206612e-01, 1.667298e-03
 3.038541e-02, 6.961016e-01, 1.473875e-03
 3.227406e-02, 6.049281e-01, 1.358028e-03
 3.416271e-02, 5.281584e-01, 1.181320e-03
 3.605136e-02, 4.824456e-01, 1.114288e-03
 3.794001e-02, 4.677947e-01, 1.060040e-03
 3.982866e-02, 4.892490e-01, 1.074360e-03
 4.171731e-02, 5.240802e-01, 1.108659e-03
 4.360596e-02, 5.462704e-01, 1.076040e-03
 4.549461e-02, 5.043091e-01, 9.972388e-04
 4.738326e-02, 4.259315e-01, 8.966284e-04
 4.927190e-02, 3.450887e-01, 8.109415e-04
 5.116055e-02, 2.923443e-01, 7.290857e-04
 5.304920e-02, 2.537113e-01, 6.670817e-04
 5.493785e-02, 2.277089e-01, 6.184454e-04
 5.682650e-02, 2.085820e-01, 5.739486e-04
 5.871515e-02, 1.924586e-01, 5.416987e-04
 6.060380e-02, 1.801703e-01, 5.282041e-04
 6.249245e-02, 1.682938e-01, 5.229064e-04
 6.438110e-02, 1.591612e-01, 5.148961e-04
 6.626975e-02, 1.503930e-01, 4.835462e-04
 6.815840e-02, 1.415983e-01, 4.757759e-04
 7.004705e-02, 1.337036e-01, 4.532796e-04
 7.193569e-02, 1.278368e-01, 4.415204e-04
 7.382434e-02, 1.217643e-01, 4.376982e-04
 7.571299e-02, 1.175112e-01, 4.274546e-04
 7.760164e-02, 1.140732e-01, 4.131380e-04
 7.949029e-02, 1.129634e-01, 4.028528e-04
 8.137894e-02, 1.155253e-01, 4.119028e-04
 8.326759e-02, 1.213260e-01, 4.145166e-04
 8.515624e-02, 1.308279e-01, 4.327735e-04
 8.704489e-02, 1.378381e-01, 4.482877e-04
 8.893354e-02, 1.395420e-01, 4.398785e-04
 9.082219e-02, 1.324864e-01, 4.256538e-04
 9.271084e-02, 1.216032e-01, 3.906661e-04
 9.459948e-02, 1.108354e-01, 3.533877e-04
 9.648813e-02, 1.025160e-01, 3.489098e-04
 9.837678e-02, 9.678108e-02, 3.265441e-04
 1.002654e-01, 9.303023e-02, 3.175241e-04
 1.021541e-01, 9.112237e-02, 3.117121e-04
 1.040427e-01, 9.088560e-02, 2.976259e-04
 1.059314e-01, 9.136021e-02, 2.991432e-04
 1.078200e-01, 9.358743e-02, 3.012889e-04
 1.097087e-01, 9.611722e-02, 3.020345e-04
 1.115973e-01, 9.978070e-02, 3.055572e-04
 1.134860e-01, 1.058300e-01, 3.096192e-04
 1.153746e-01, 1.126192e-01, 3.123508e-04
 1.172633e-01, 1.220964e-01, 3.213977e-04
 1.191519e-01, 1.341506e-01, 3.354688e-04
 1.210406e-01, 1.491632e-01, 3.530038e-04
 1.229292e-01, 1.721875e-01, 3.749618e-04
 1.248179e-01, 1.992737e-01, 3.976981e-04
 1.267065e-01, 2.298076e-01, 4.183947e-04
 1.285952e-01, 2.491516e-01, 4.373396e-04
 1.304838e-01, 2.474819e-01, 4.272897e-04
 1.323725e-01, 2.230380e-01, 4.067842e-04
 1.342611e-01, 1.839092e-01, 3.693910e-04
 1.361498e-01, 1.434908e-01, 3.139205e-04
 1.380384e-01, 1.062763e-01, 2.739881e-04
 1.399271e-01, 7.928396e-02, 2.341686e-04
 1.418157e-01, 6.132129e-02, 2.014338e-04
 1.437044e-01, 4.912662e-02, 1.827532e-04
 1.455930e-01, 4.171095e-02, 1.661396e-04
 1.474817e-01, 3.590662e-02, 1.521358e-04
 1.493703e-01, 3.167129e-02, 1.428854e-04
 1.512590e-01, 2.895095e-02, 1.336119e-04
 1.531476e-01, 2.649723e-02, 1.294459e-04
 1.550363e-01, 2.464478e-02, 1.223356e-04
 1.569249e-01, 2.361167e-02, 1.203003e-04
 1.588136e-01, 2.257823e-02, 1.171004e-04
 1.607022e-01, 2.192700e-02, 1.131747e-04
 1.625909e-01, 2.118688e-02, 1.102825e-04
 1.644795e-01, 2.100350e-02, 1.094913e-04
 1.663682e-01, 2.106234e-02, 1.096476e-04
 1.682568e-01, 2.124519e-02, 1.094982e-04
 1.701455e-01, 2.193732e-02, 1.109560e-04
 1.720341e-01, 2.171219e-02, 1.085637e-04
 1.739227e-01, 2.151815e-02, 1.072055e-04
 1.758114e-01, 2.044818e-02, 1.038139e-04
 1.777000e-01, 1.885889e-02, 1.012573e-04
 1.795887e-01, 1.768328e-02, 9.667468e-05
 1.814773e-01, 1.614759e-02, 9.213967e-05
 1.833660e-01, 1.485127e-02, 8.628044e-05
 1.852546e-01, 1.358514e-02, 8.294268e-05
 1.871433e-01, 1.278469e-02, 8.005771e-05
 1.890319e-01, 1.223210e-02, 7.806523e-05
 1.909206e-01, 1.168364e-02, 7.624972e-05
 1.928092e-01, 1.123907e-02, 7.446198e-05
 1.946979e-01, 1.096456e-02, 7.208847e-05
 1.965865e-01, 1.059686e-02, 7.151393e-05
 1.984752e-01, 1.031857e-02, 6.985412e-05
 2.003638e-01, 1.021094e-02, 6.912235e-05
 2.022525e-01, 1.018132e-02, 6.890292e-05
 2.041411e-01, 1.014008e-02, 6.852503e-05
 2.060298e-01, 1.019659e-02, 6.855865e-05
 2.079184e-01, 1.041930e-02, 6.797962e-05
 2.098071e-01, 1.066735e-02, 6.929042e-05
 2.116957e-01, 1.096272e-02, 6.950276e-05
 2.135844e-01, 1.144930e-02, 7.079621e-05
 2.154730e-01, 1.156530e-02, 7.183141e-05
 2.173617e-01, 1.162618e-02, 7.118977e-05
 2.192503e-01, 1.142539e-02, 6.875408e-05
 2.211390e-01, 1.103579e-02, 6.778595e-05
 2.230276e-01, 1.045744e-02, 6.651218e-05
 2.249163e-01, 9.759920e-03, 6.402047e-05
 2.268049e-01, 9.173257e-03, 6.151977e-05
 2.286936e-01, 8.594215e-03, 5.933398e-05
 2.305822e-01, 8.132143e-03, 5.699089e-05
 2.324709e-01, 7.646909e-03, 5.493701e-05
 2.343595e-01, 7.291431e-03, 5.415939e-05
 2.362482e-01, 7.172880e-03, 5.334360e-05
 2.381368e-01, 6.920448e-03, 5.193518e-05
 2.400255e-01, 6.779587e-03, 5.163386e-05
 2.419141e-01, 6.537655e-03, 4.978118e-05
 2.438028e-01, 6.363156e-03, 4.890541e-05
 2.456914e-01, 6.257763e-03, 4.903564e-05
 2.475801e-01, 6.207458e-03, 4.830743e-05
 2.494687e-01, 6.131344e-03, 4.778751e-05
 2.513574e-01, 6.085551e-03, 4.749990e-05
 2.532460e-01, 6.078567e-03, 4.727719e-05
 2.551347e-01, 6.070400e-03, 4.816716e-05
 2.570233e-01, 6.121965e-03, 4.789367e-05
 2.589120e-01, 6.168685e-03, 4.912831e-05
 2.608006e-01, 6.275256e-03, 4.965061e-05
 2.626893e-01, 6.279646e-03, 4.969468e-05
 2.645779e-01, 6.309286e-03, 4.902275e-05
 2.664666e-01, 6.323399e-03, 4.931584e-05
 2.683552e-01, 6.368878e-03, 4.968716e-05
 2.702439e-01, 6.282817e-03, 4.969178e-05
 2.721325e-01, 6.157605e-03, 4.902763e-05
 2.740212e-01, 6.084982e-03, 4.888363e-05
 2.759098e-01, 6.035846e-03, 4.766694e-05
 2.777985e-01, 5.960299e-03, 4.814841e-05
 2.796871e-01, 5.769772e-03, 4.751399e-05
 2.815758e-01, 5.775190e-03, 4.721565e-05
 2.834644e-01, 5.737770e-03, 4.704196e-05
 2.853530e-01, 5.751386e-03, 4.595964e-05
 2.872417e-01, 5.712449e-03, 4.516652e-05
 2.891303e-01, 5.749299e-03, 4.529395e-05
 2.910190e-01, 5.888551e-03, 4.531800e-05
 2.929076e-01, 5.776786e-03, 4.467403e-05
 2.947963e-01, 6.001687e-03, 4.571594e-05
 2.966849e-01, 6.091204e-03, 4.529434e-05
 2.985736e-01, 6.183403e-03, 4.531455e-05
 3.004622e-01, 6.189199e-03, 4.524418e-05
 3.023509e-01, 6.224882e-03, 4.524585e-05
 3.042395e-01, 6.291629e-03, 4.556520e-05
 3.061282e-01, 6.180858e-03, 4.470557e-05
 3.080168e-01, 6.064758e-03, 4.377546e-05
 3.099055e-01, 6.032620e-03, 4.371349e-05
 3.117941e-01, 5.882021e-03, 4.301360e-05
 3.136828e-01, 5.773108e-03, 4.226803e-05
 3.155714e-01, 5.704550e-03, 4.306455e-05
 3.174601e-01, 5.610190e-03, 4.263993e-05
 3.193487e-01, 5.565120e-03, 4.206354e-05
 3.212374e-01, 5.515548e-03, 4.250785e-05
 3.231260e-01, 5.510195e-03, 4.235105e-05
 3.250147e-01, 5.243667e-03, 4.106653e-05
 3.269033e-01, 5.324085e-03, 4.166823e-05
 3.287920e-01, 5.189718e-03, 4.104115e-05
 3.306806e-01, 5.220336e-03, 4.060828e-05
 3.325693e-01, 5.067757e-03, 4.047863e-05
 3.344579e-01, 5.009335e-03, 4.029578e-05
 3.363466e-01, 5.007883e-03, 3.981161e-05
 3.382352e-01, 4.907568e-03, 4.005144e-05
 3.401239e-01, 5.041946e-03, 4.038471e-05
 3.420125e-01, 5.088179e-03, 4.018417e-05
 3.439012e-01, 5.144977e-03, 4.050660e-05
 3.457898e-01, 5.090990e-03, 4.036022e-05
 3.476785e-01, 5.325910e-03, 4.146592e-05
 3.495671e-01, 5.301163e-03, 4.125575e-05
 3.514558e-01, 5.370190e-03, 4.111619e-05
 3.533444e-01, 5.463148e-03, 4.168642e-05
 3.552331e-01, 5.545715e-03, 4.165709e-05
 3.571217e-01, 5.579042e-03, 4.211467e-05
 3.590104e-01, 5.639542e-03, 4.237862e-05
 3.608990e-01, 5.651577e-03, 4.183256e-05
 3.627877e-01, 5.724664e-03, 4.226830e-05
 3.646763e-01, 5.736650e-03, 4.243089e-05
 3.665650e-01, 5.895095e-03, 4.255194e-05
 3.684536e-01, 5.964174e-03, 4.286892e-05
 3.703423e-01, 6.013554e-03, 4.333256e-05
 3.722309e-01, 6.112085e-03, 4.340273e-05
 3.741196e-01, 6.266015e-03, 4.399940e-05
 3.760082e-01, 6.400352e-03, 4.411624e-05
 3.778969e-01, 6.651736e-03, 4.482461e-05
 3.797855e-01, 6.871383e-03, 4.604931e-05
 3.816742e-01, 7.089681e-03, 4.670636e-05
 3.835628e-01, 7.270611e-03, 4.694333e-05
 3.854515e-01, 7.431901e-03, 4.704017e-05
 3.873401e-01, 7.616132e-03, 4.834494e-05
 3.892288e-01, 7.782687e-03, 4.825133e-05
 3.911174e-01, 7.920537e-03, 4.878914e-05
 3.930061e-01, 7.945657e-03, 4.910905e-05
 3.948947e-01, 8.121964e-03, 4.932013e-05
 3.967833e-01, 8.208283e-03, 4.912938e-05
 3.986720e-01, 8.074572e-03, 4.949721e-05
 4.005606e-01, 8.026146e-03, 4.851694e-05
 4.024493e-01, 7.916146e-03, 4.839892e-05
 4.043379e-01, 7.888208e-03, 4.845962e-05
 4.062266e-01, 7.801794e-03, 4.861237e-05
 4.081152e-01, 7.578860e-03, 4.797035e-05
 4.100039e-01, 7.341332e-03, 4.798256e-05
 4.118925e-01, 7.109212e-03, 4.746230e-05
 4.137812e-01, 6.903419e-03, 4.682895e-05
 4.156698e-01, 6.751913e-03, 4.615189e-05
 4.175585e-01, 6.524828e-03, 4.539017e-05
 4.194471e-01, 6.320210e-03, 4.513860e-05
 4.213358e-01, 6.103255e-03, 4.416623e-05
 4.232244e-01, 5.969539e-03, 4.428446e-05
 4.251131e-01, 5.780126e-03, 4.307295e-05
 4.270017e-01, 5.584161e-03, 4.271564e-05
 4.288904e-01, 5.465556e-03, 4.227982e-05
 4.307790e-01, 5.247836e-03, 4.139862e-05
 4.326677e-01, 5.185612e-03, 4.139096e-05
 4.345563e-01, 5.065025e-03, 4.123224e-05
 4.364450e-01, 4.883264e-03, 4.009010e-05
 4.383336e-01, 4.922408e-03, 4.046878e-05
 4.402223e-01, 4.732812e-03, 3.968475e-05
 4.421109e-01, 4.636336e-03, 3.937875e-05
 4.439996e-01, 4.473507e-03, 3.907477e-05
 4.458882e-01, 4.477261e-03, 3.909415e-05
 4.477769e-01, 4.312416e-03, 3.795547e-05
 4.496655e-01, 4.297754e-03, 3.806752e-05
 4.515542e-01, 4.165072e-03, 3.755671e-05
 4.534428e-01, 4.147584e-03, 3.779914e-05
 4.553315e-01, 4.110196e-03, 3.777665e-05
 4.572201e-01, 4.081336e-03, 3.720157e-05
 4.591088e-01, 4.025376e-03, 3.735858e-05
 4.609974e-01, 4.014696e-03, 3.696454e-05
 4.628861e-01, 3.940025e-03, 3.682427e-05
 4.647747e-01, 3.915183e-03, 3.696367e-05
 4.666634e-01, 3.944225e-03, 3.694429e-05
 4.685520e-01, 3.878508e-03, 3.693985e-05
 4.704407e-01, 3.866372e-03, 3.632038e-05
 4.723293e-01, 3.825031e-03, 3.650011e-05
 4.742180e-01, 3.763978e-03, 3.683453e-05
 4.761066e-01, 3.800116e-03, 3.781444e-05
 4.779953e-01, 3.715383e-03, 3.760401e-05
 4.798839e-01, 3.660348e-03, 3.725750e-05
 4.817726e-01, 3.704359e-03, 3.800392e-05
 4.836612e-01, 3.696074e-03, 3.813021e-05
 4.855499e-01, 3.660528e-03, 3.843829e-05
 4.874385e-01, 3.629217e-03, 3.831495e-05
 4.893272e-01, 3.551115e-03, 3.836634e-05
 4.912158e-01, 3.614282e-03, 3.872915e-05
 4.931045e-01, 3.499883e-03, 3.817322e-05
 4.949931e-01, 3.529092e-03, 3.898181e-05
 4.968818e-01, 3.513789e-03, 3.927799e-05
 4.987704e-01, 3.534692e-03, 3.922838e-05
 5.006591e-01, 3.509145e-03, 3.921629e-05
 5.025477e-01, 3.518782e-03, 3.977104e-05
 5.044364e-01, 3.499172e-03, 3.984056e-05
 5.063250e-01, 3.493906e-03, 4.022099e-05
 5.082137e-01, 3.467789e-03, 4.021183e-05
 5.101023e-01, 3.555096e-03, 4.053250e-05
 5.119909e-01, 3.503618e-03, 4.099551e-05
 5.138796e-01, 3.556993e-03, 4.080688e-05
 5.157682e-01, 3.543326e-03, 4.104086e-05
 5.176569e-01, 3.604186e-03, 4.227075e-05
 5.195455e-01, 3.540770e-03, 4.164747e-05
 5.214342e-01, 3.586192e-03, 4.142083e-05
 5.233228e-01, 3.527773e-03, 4.190830e-05
 5.252115e-01, 3.549898e-03, 4.222480e-05
 5.271001e-01, 3.513463e-03, 4.177959e-05
 5.289888e-01, 3.561327e-03, 4.272498e-05
 5.308774e-01, 3.525340e-03, 4.183220e-05
 5.327661e-01, 3.495654e-03, 4.244412e-05
 5.346547e-01, 3.500291e-03, 4.228898e-05
 5.365434e-01, 3.566500e-03, 4.277167e-05
 5.384320e-01, 3.574907e-03, 4.346090e-05
 5.403207e-01, 3.483757e-03, 4.257675e-05
 5.422093e-01, 3.490594e-03, 4.206146e-05
 5.440980e-01, 3.561443e-03, 4.319520e-05
 5.459866e-01, 3.483048e-03, 4.253000e-05
 5.478753e-01, 3.467937e-03, 4.268735e-05
 5.497639e-01, 3.595683e-03, 4.349864e-05
 5.516526e-01, 3.444865e-03, 4.217394e-05
 5.535412e-01, 3.521014e-03, 4.316446e-05
 5.554299e-01, 3.462661e-03, 4.300530e-05
 5.573185e-01, 3.393540e-03, 4.243915e-05
 5.592072e-01, 3.446744e-03, 4.308430e-05
 5.610958e-01, 3.531061e-03, 4.375705e-05
 5.629845e-01, 3.479897e-03, 4.335668e-05
 5.648731e-01, 3.480678e-03, 4.353910e-05
 5.667618e-01, 3.466889e-03, 4.407933e-05
 5.686504e-01, 3.395233e-03, 4.298107e-05
 5.705391e-01, 3.437471e-03, 4.405204e-05
 5.724277e-01, 3.408049e-03, 4.392823e-05
 5.743164e-01, 3.343134e-03, 4.260585e-05
 5.762050e-01, 3.404112e-03, 4.397255e-05
 5.780937e-01, 3.393512e-03, 4.453213e-05
 5.799823e-01, 3.404898e-03, 4.398638e-05
 5.818710e-01, 3.423540e-03, 4.383753e-05
 5.837596e-01, 3.403187e-03, 4.432450e-05
 5.856483e-01, 3.378466e-03, 4.416767e-05
 5.875369e-01, 3.309979e-03, 4.412914e-05
 5.894256e-01, 3.358942e-03, 4.461962e-05
 5.913142e-01, 3.325373e-03, 4.420882e-05
 5.932029e-01, 3.288859e-03, 4.375045e-05
 5.950915e-01, 3.362104e-03, 4.654797e-05
 5.969802e-01, 3.336890e-03, 4.731868e-05
 5.988688e-01, 3.346142e-03, 4.898075e-05
 6.007575e-01, 3.239641e-03, 4.942705e-05
 6.026461e-01, 3.273378e-03, 5.067854e-05
 6.045348e-01, 3.289366e-03, 5.165552e-05
 6.064234e-01, 3.271220e-03, 5.219441e-05
 6.083121e-01, 3.172383e-03, 5.276324e-05
 6.102007e-01, 3.369528e-03, 5.571180e-05
 6.120894e-01, 3.269674e-03, 5.525968e-05
 6.139780e-01, 3.381931e-03, 5.766982e-05
 6.158667e-01, 3.335226e-03, 5.769285e-05
 6.177553e-01, 3.254542e-03, 5.866182e-05
 6.196440e-01, 3.211984e-03, 5.912741e-05
 6.215326e-01, 3.442792e-03, 6.282509e-05
 6.234212e-01, 3.307955e-03, 6.124792e-05
 6.253099e-01, 3.356821e-03, 6.293425e-05
 6.271985e-01, 3.174936e-03, 6.353685e-05
 6.290872e-01, 3.246555e-03, 6.347517e-05
 6.309758e-01, 3.224768e-03, 6.465071e-05
 6.328645e-01, 3.154376e-03, 6.584490e-05
 6.347531e-01, 3.233973e-03, 6.634577e-05
 6.366418e-01, 3.250991e-03, 6.777312e-05
 6.385304e-01, 3.365735e-03, 7.146595e-05
 6.404191e-01, 3.290588e-03, 7.015557e-05
 6.423077e-01, 3.234516e-03, 7.046558e-05
 6.441964e-01, 3.206672e-03, 7.399574e-05
 6.460850e-01, 3.273179e-03, 7.311744e-05
 6.479737e-01, 3.259491e-03, 7.446496e-05
 6.498623e-01, 3.330693e-03, 7.790162e-05
 6.517510e-01, 3.370914e-03, 7.998824e-05
 6.536396e-01, 3.395493e-03, 7.920090e-05
 6.555283e-01, 3.161846e-03, 8.031097e-05
 6.574169e-01, 3.149719e-03, 8.265868e-05
 6.593056e-01, 3.285484e-03, 8.270767e-05
 6.611942e-01, 3.319345e-03, 8.720034e-05
 6.630829e-01, 3.249127e-03, 8.826672e-05
 6.649715e-01, 3.236225e-03, 8.759361e-05
 6.668602e-01, 3.319395e-03, 9.340223e-05
 6.687488e-01, 3.150698e-03, 9.219033e-05
 6.706375e-01, 3.136288e-03, 9.321650e-05
 6.725261e-01, 3.384708e-03, 9.920755e-05
 6.744148e-01, 3.245057e-03, 9.784214e-05
 6.763034e-01, 3.199291e-03, 9.821913e-05
 6.781921e-01, 3.286531e-03, 1.022063e-04
 6.800807e-01, 3.268227e-03, 1.019332e-04
 6.819694e-01, 3.231695e-03, 1.029704e-04
 6.838580e-01, 3.166660e-03, 1.044585e-04
 6.857467e-01, 3.424384e-03, 1.095558e-04
 6.876353e-01, 3.237559e-03, 1.079186e-04
 6.895240e-01, 3.247486e-03, 1.095350e-04
 6.914126e-01, 3.237589e-03, 1.119075e-04
 6.933013e-01, 3.218143e-03, 1.121093e-04
 6.951899e-01, 3.496708e-03, 1.209362e-04
 6.970786e-01, 3.557836e-03, 1.213918e-04
 6.989672e-01, 3.375970e-03, 1.219787e-04
 7.008559e-01, 3.167734e-03, 1.207687e-04
 7.027445e-01, 3.196135e-03, 1.213236e-04
 7.046332e-01, 3.481517e-03, 1.318719e-04
 7.065218e-01, 3.139019e-03, 1.283640e-04
 7.084105e-01, 3.333666e-03, 1.306567e-04
 7.102991e-01, 3.228183e-03, 1.354516e-04
 7.121878e-01, 3.383336e-03, 1.396452e-04
 7.140764e-01, 3.168146e-03, 1.390662e-04
 7.159651e-01, 3.276164e-03, 1.457874e-04
 7.178537e-01, 3.375137e-03, 1.491614e-04
 7.197424e-01, 3.388817e-03, 1.571526e-04
 7.216310e-01, 3.119947e-03, 1.508083e-04
 7.235197e-01, 3.045149e-03, 1.560077e-04
 7.254083e-01, 3.281496e-03, 1.703668e-04
 7.272970e-01, 2.893044e-03, 1.599857e-04
 7.291856e-01, 2.980793e-03, 1.718100e-04
 7.310743e-01, 3.267356e-03, 1.820826e-04
 7.329629e-01, 3.352861e-03, 1.996600e-04
 7.348515e-01, 3.380382e-03, 2.064897e-04
 7.367402e-01, 3.478513e-03, 2.161443e-04
 7.386288e-01, 3.300780e-03, 2.256367e-04
 7.405175e-01, 3.404927e-03, 2.483298e-04
 7.424061e-01, 3.035719e-03, 2.454233e-04
 7.442948e-01, 3.180648e-03, 2.641384e-04
 7.461834e-01, 3.724148e-03, 3.217174e-04
 7.480721e-01, 3.563370e-03, 3.675336e-04
 7.499607e-01, 3.800230e-03, 4.196652e-04
 7.518494e-01, 3.754863e-03, 5.109721e-04
 7.537380e-01, 4.034053e-03, 7.491049e-04
 7.556267e-01, NaN, NaN
 7.575153e-01, NaN, NaN
#HEADERS
"latest_0021233_caz","KF LIPNOR2 DRY 32, conf 22, I0=22, trans=15540182.674880, time=1800"
