1,"Number of Datasets"
3,"Number of Columns per Dataset"
400,"Maximum Number of Rows for Any Dataset"
#DATASETS q-units: Angstrom I-units: Absolute intensity(cm^-1) X thickness(cm) 
"latest_0021227_caz","KF LIPNOR2 DRY 68, conf 22, I0=22, trans=15414665.848842, time=1800","",
q,I,dI,
 3.944325e-03, NaN, NaN
 5.832974e-03, NaN, NaN
 7.721623e-03, NaN, NaN
 9.610272e-03, NaN, NaN
 1.149892e-02, NaN, NaN
 1.338757e-02, 1.080998e+01, 1.148565e-02
 1.527622e-02, 6.852616e+00, 7.181213e-03
 1.716487e-02, 4.394124e+00, 5.611931e-03
 1.905352e-02, 3.128304e+00, 4.228523e-03
 2.094217e-02, 2.282913e+00, 3.612271e-03
 2.283082e-02, 1.670673e+00, 2.788757e-03
 2.471947e-02, 1.262001e+00, 2.297051e-03
 2.660811e-02, 9.853145e-01, 2.029692e-03
 2.849676e-02, 7.884659e-01, 1.744436e-03
 3.038541e-02, 6.457907e-01, 1.515315e-03
 3.227406e-02, 5.382852e-01, 1.367400e-03
 3.416271e-02, 4.447142e-01, 1.157067e-03
 3.605136e-02, 3.786272e-01, 1.053687e-03
 3.794001e-02, 3.215491e-01, 9.381030e-04
 3.982866e-02, 2.811089e-01, 8.692694e-04
 4.171731e-02, 2.475598e-01, 8.133388e-04
 4.360596e-02, 2.175925e-01, 7.249016e-04
 4.549461e-02, 1.936054e-01, 6.595411e-04
 4.738326e-02, 1.721754e-01, 6.084999e-04
 4.927190e-02, 1.555886e-01, 5.812266e-04
 5.116055e-02, 1.417459e-01, 5.418997e-04
 5.304920e-02, 1.285933e-01, 5.069331e-04
 5.493785e-02, 1.194091e-01, 4.780381e-04
 5.682650e-02, 1.095167e-01, 4.439226e-04
 5.871515e-02, 1.005615e-01, 4.179625e-04
 6.060380e-02, 9.483393e-02, 4.090482e-04
 6.249245e-02, 8.964069e-02, 4.073567e-04
 6.438110e-02, 8.389161e-02, 3.990181e-04
 6.626975e-02, 8.048647e-02, 3.775879e-04
 6.815840e-02, 7.662195e-02, 3.735790e-04
 7.004705e-02, 7.366960e-02, 3.591460e-04
 7.193569e-02, 7.019967e-02, 3.492391e-04
 7.382434e-02, 6.707540e-02, 3.467598e-04
 7.571299e-02, 6.541103e-02, 3.404147e-04
 7.760164e-02, 6.347452e-02, 3.289542e-04
 7.949029e-02, 6.213312e-02, 3.189125e-04
 8.137894e-02, 6.057224e-02, 3.183650e-04
 8.326759e-02, 5.912379e-02, 3.088721e-04
 8.515624e-02, 5.981803e-02, 3.123625e-04
 8.704489e-02, 5.831971e-02, 3.112521e-04
 8.893354e-02, 5.776846e-02, 3.021050e-04
 9.082219e-02, 5.766521e-02, 2.997507e-04
 9.271084e-02, 5.735092e-02, 2.863754e-04
 9.459948e-02, 5.788033e-02, 2.725901e-04
 9.648813e-02, 5.814678e-02, 2.804869e-04
 9.837678e-02, 5.915744e-02, 2.725108e-04
 1.002654e-01, 5.931081e-02, 2.706226e-04
 1.021541e-01, 6.076660e-02, 2.717103e-04
 1.040427e-01, 6.160281e-02, 2.615507e-04
 1.059314e-01, 6.304422e-02, 2.652501e-04
 1.078200e-01, 6.471423e-02, 2.674279e-04
 1.097087e-01, 6.630672e-02, 2.677732e-04
 1.115973e-01, 6.839332e-02, 2.700279e-04
 1.134860e-01, 7.049495e-02, 2.697335e-04
 1.153746e-01, 7.212346e-02, 2.668130e-04
 1.172633e-01, 7.550688e-02, 2.697844e-04
 1.191519e-01, 7.748457e-02, 2.721422e-04
 1.210406e-01, 8.051860e-02, 2.768401e-04
 1.229292e-01, 8.314828e-02, 2.781283e-04
 1.248179e-01, 8.591486e-02, 2.787373e-04
 1.267065e-01, 8.976492e-02, 2.791192e-04
 1.285952e-01, 9.322028e-02, 2.855450e-04
 1.304838e-01, 9.662182e-02, 2.849842e-04
 1.323725e-01, 9.978251e-02, 2.904252e-04
 1.342611e-01, 1.028692e-01, 2.948897e-04
 1.361498e-01, 1.058719e-01, 2.878262e-04
 1.380384e-01, 1.096871e-01, 2.971144e-04
 1.399271e-01, 1.113471e-01, 2.962155e-04
 1.418157e-01, 1.138416e-01, 2.929608e-04
 1.437044e-01, 1.151196e-01, 2.986163e-04
 1.455930e-01, 1.171454e-01, 2.971960e-04
 1.474817e-01, 1.175800e-01, 2.938619e-04
 1.493703e-01, 1.175661e-01, 2.938520e-04
 1.512590e-01, 1.169561e-01, 2.866536e-04
 1.531476e-01, 1.152588e-01, 2.881757e-04
 1.550363e-01, 1.128010e-01, 2.793697e-04
 1.569249e-01, 1.110400e-01, 2.784681e-04
 1.588136e-01, 1.077776e-01, 2.730928e-04
 1.607022e-01, 1.041728e-01, 2.633113e-04
 1.625909e-01, 9.995134e-02, 2.556819e-04
 1.644795e-01, 9.611651e-02, 2.500145e-04
 1.663682e-01, 9.188675e-02, 2.444584e-04
 1.682568e-01, 8.724241e-02, 2.368497e-04
 1.701455e-01, 8.292251e-02, 2.302648e-04
 1.720341e-01, 7.914957e-02, 2.212531e-04
 1.739227e-01, 7.483665e-02, 2.134048e-04
 1.758114e-01, 7.033853e-02, 2.055216e-04
 1.777000e-01, 6.671838e-02, 2.032935e-04
 1.795887e-01, 6.308456e-02, 1.949061e-04
 1.814773e-01, 6.000868e-02, 1.895973e-04
 1.833660e-01, 5.615920e-02, 1.790909e-04
 1.852546e-01, 5.300321e-02, 1.748757e-04
 1.871433e-01, 5.025104e-02, 1.694193e-04
 1.890319e-01, 4.759387e-02, 1.643672e-04
 1.909206e-01, 4.464865e-02, 1.591057e-04
 1.928092e-01, 4.237517e-02, 1.543325e-04
 1.946979e-01, 3.995944e-02, 1.468968e-04
 1.965865e-01, 3.811997e-02, 1.447807e-04
 1.984752e-01, 3.602163e-02, 1.393145e-04
 2.003638e-01, 3.432581e-02, 1.352784e-04
 2.022525e-01, 3.238190e-02, 1.311653e-04
 2.041411e-01, 3.077769e-02, 1.274321e-04
 2.060298e-01, 2.935619e-02, 1.241701e-04
 2.079184e-01, 2.834300e-02, 1.196781e-04
 2.098071e-01, 2.682857e-02, 1.172941e-04
 2.116957e-01, 2.575537e-02, 1.137127e-04
 2.135844e-01, 2.460064e-02, 1.107710e-04
 2.154730e-01, 2.348435e-02, 1.092591e-04
 2.173617e-01, 2.272188e-02, 1.062316e-04
 2.192503e-01, 2.175187e-02, 1.012613e-04
 2.211390e-01, 2.075907e-02, 9.923715e-05
 2.230276e-01, 2.005867e-02, 9.832681e-05
 2.249163e-01, 1.950968e-02, 9.661693e-05
 2.268049e-01, 1.878012e-02, 9.395818e-05
 2.286936e-01, 1.801531e-02, 9.169668e-05
 2.305822e-01, 1.738656e-02, 8.894923e-05
 2.324709e-01, 1.707321e-02, 8.762180e-05
 2.343595e-01, 1.643148e-02, 8.678369e-05
 2.362482e-01, 1.595732e-02, 8.492741e-05
 2.381368e-01, 1.536580e-02, 8.260465e-05
 2.400255e-01, 1.501923e-02, 8.203313e-05
 2.419141e-01, 1.465662e-02, 7.956161e-05
 2.438028e-01, 1.419249e-02, 7.796189e-05
 2.456914e-01, 1.372833e-02, 7.752534e-05
 2.475801e-01, 1.345343e-02, 7.591123e-05
 2.494687e-01, 1.315866e-02, 7.472652e-05
 2.513574e-01, 1.275726e-02, 7.340976e-05
 2.532460e-01, 1.245049e-02, 7.222320e-05
 2.551347e-01, 1.221513e-02, 7.293294e-05
 2.570233e-01, 1.198490e-02, 7.152904e-05
 2.589120e-01, 1.168119e-02, 7.216248e-05
 2.608006e-01, 1.138809e-02, 7.139483e-05
 2.626893e-01, 1.111402e-02, 7.056841e-05
 2.645779e-01, 1.096476e-02, 6.898259e-05
 2.664666e-01, 1.081514e-02, 6.884299e-05
 2.683552e-01, 1.055573e-02, 6.827931e-05
 2.702439e-01, 1.035482e-02, 6.809433e-05
 2.721325e-01, 1.017232e-02, 6.726318e-05
 2.740212e-01, 1.015325e-02, 6.740140e-05
 2.759098e-01, 9.977618e-03, 6.541751e-05
 2.777985e-01, 9.681720e-03, 6.550231e-05
 2.796871e-01, 9.604518e-03, 6.543535e-05
 2.815758e-01, 9.527283e-03, 6.473211e-05
 2.834644e-01, 9.390242e-03, 6.423692e-05
 2.853530e-01, 9.396757e-03, 6.270639e-05
 2.872417e-01, 9.229867e-03, 6.128238e-05
 2.891303e-01, 9.175771e-03, 6.107823e-05
 2.910190e-01, 9.173743e-03, 6.037710e-05
 2.929076e-01, 9.139315e-03, 5.997928e-05
 2.947963e-01, 9.023095e-03, 5.983306e-05
 2.966849e-01, 8.970179e-03, 5.867124e-05
 2.985736e-01, 8.970313e-03, 5.825862e-05
 3.004622e-01, 8.948796e-03, 5.807112e-05
 3.023509e-01, 9.026679e-03, 5.815802e-05
 3.042395e-01, 8.879217e-03, 5.777920e-05
 3.061282e-01, 8.919000e-03, 5.732284e-05
 3.080168e-01, 8.881051e-03, 5.654427e-05
 3.099055e-01, 9.017509e-03, 5.704771e-05
 3.117941e-01, 8.928086e-03, 5.656582e-05
 3.136828e-01, 9.037074e-03, 5.644865e-05
 3.155714e-01, 8.958379e-03, 5.760450e-05
 3.174601e-01, 8.938061e-03, 5.744891e-05
 3.193487e-01, 8.805444e-03, 5.647765e-05
 3.212374e-01, 8.831395e-03, 5.741455e-05
 3.231260e-01, 8.670659e-03, 5.670732e-05
 3.250147e-01, 8.593808e-03, 5.611716e-05
 3.269033e-01, 8.463414e-03, 5.607739e-05
 3.287920e-01, 8.278953e-03, 5.533091e-05
 3.306806e-01, 8.248448e-03, 5.448587e-05
 3.325693e-01, 8.173704e-03, 5.487314e-05
 3.344579e-01, 7.998753e-03, 5.435170e-05
 3.363466e-01, 7.842049e-03, 5.317774e-05
 3.382352e-01, 7.779140e-03, 5.382489e-05
 3.401239e-01, 7.713087e-03, 5.331684e-05
 3.420125e-01, 7.548484e-03, 5.224396e-05
 3.439012e-01, 7.461892e-03, 5.207041e-05
 3.457898e-01, 7.541663e-03, 5.243465e-05
 3.476785e-01, 7.384666e-03, 5.211854e-05
 3.495671e-01, 7.436307e-03, 5.215668e-05
 3.514558e-01, 7.357855e-03, 5.137195e-05
 3.533444e-01, 7.379578e-03, 5.171557e-05
 3.552331e-01, 7.358594e-03, 5.122005e-05
 3.571217e-01, 7.363927e-03, 5.164648e-05
 3.590104e-01, 7.349678e-03, 5.164062e-05
 3.608990e-01, 7.374502e-03, 5.100683e-05
 3.627877e-01, 7.384807e-03, 5.124385e-05
 3.646763e-01, 7.498768e-03, 5.178218e-05
 3.665650e-01, 7.558688e-03, 5.143155e-05
 3.684536e-01, 7.602523e-03, 5.166288e-05
 3.703423e-01, 7.687710e-03, 5.229734e-05
 3.722309e-01, 7.737892e-03, 5.212741e-05
 3.741196e-01, 7.821172e-03, 5.247100e-05
 3.760082e-01, 7.967974e-03, 5.254155e-05
 3.778969e-01, 8.161456e-03, 5.299870e-05
 3.797855e-01, 8.388116e-03, 5.430823e-05
 3.816742e-01, 8.362794e-03, 5.414655e-05
 3.835628e-01, 8.535667e-03, 5.429247e-05
 3.854515e-01, 8.806244e-03, 5.465712e-05
 3.873401e-01, 8.845075e-03, 5.561181e-05
 3.892288e-01, 8.966546e-03, 5.528273e-05
 3.911174e-01, 9.183306e-03, 5.607609e-05
 3.930061e-01, 9.266073e-03, 5.660789e-05
 3.948947e-01, 9.397241e-03, 5.662736e-05
 3.967833e-01, 9.357633e-03, 5.599259e-05
 3.986720e-01, 9.551163e-03, 5.746211e-05
 4.005606e-01, 9.427109e-03, 5.612568e-05
 4.024493e-01, 9.374101e-03, 5.621808e-05
 4.043379e-01, 9.369180e-03, 5.637337e-05
 4.062266e-01, 9.297402e-03, 5.664516e-05
 4.081152e-01, 9.079666e-03, 5.604519e-05
 4.100039e-01, 8.921913e-03, 5.646215e-05
 4.118925e-01, 8.759983e-03, 5.623699e-05
 4.137812e-01, 8.603533e-03, 5.580243e-05
 4.156698e-01, 8.434796e-03, 5.506122e-05
 4.175585e-01, 8.147968e-03, 5.414201e-05
 4.194471e-01, 8.017215e-03, 5.426584e-05
 4.213358e-01, 7.839850e-03, 5.343131e-05
 4.232244e-01, 7.650441e-03, 5.351267e-05
 4.251131e-01, 7.482058e-03, 5.230929e-05
 4.270017e-01, 7.296873e-03, 5.212052e-05
 4.288904e-01, 7.130586e-03, 5.154790e-05
 4.307790e-01, 6.941843e-03, 5.082361e-05
 4.326677e-01, 6.757164e-03, 5.043362e-05
 4.345563e-01, 6.692988e-03, 5.059279e-05
 4.364450e-01, 6.538840e-03, 4.951819e-05
 4.383336e-01, 6.427630e-03, 4.936159e-05
 4.402223e-01, 6.416087e-03, 4.932096e-05
 4.421109e-01, 6.283595e-03, 4.893403e-05
 4.439996e-01, 6.254271e-03, 4.931660e-05
 4.458882e-01, 6.244724e-03, 4.928270e-05
 4.477769e-01, 6.116582e-03, 4.825039e-05
 4.496655e-01, 6.091142e-03, 4.837440e-05
 4.515542e-01, 5.998796e-03, 4.811060e-05
 4.534428e-01, 5.990250e-03, 4.848855e-05
 4.553315e-01, 5.960406e-03, 4.855819e-05
 4.572201e-01, 5.928982e-03, 4.786109e-05
 4.591088e-01, 5.875402e-03, 4.817684e-05
 4.609974e-01, 5.798051e-03, 4.741682e-05
 4.628861e-01, 5.816911e-03, 4.775989e-05
 4.647747e-01, 5.726849e-03, 4.771877e-05
 4.666634e-01, 5.754820e-03, 4.763375e-05
 4.685520e-01, 5.784378e-03, 4.815302e-05
 4.704407e-01, 5.666310e-03, 4.693330e-05
 4.723293e-01, 5.746281e-03, 4.775321e-05
 4.742180e-01, 5.729311e-03, 4.850821e-05
 4.761066e-01, 5.732542e-03, 4.957529e-05
 4.779953e-01, 5.611305e-03, 4.932837e-05
 4.798839e-01, 5.682790e-03, 4.955252e-05
 4.817726e-01, 5.619962e-03, 4.996559e-05
 4.836612e-01, 5.674089e-03, 5.042888e-05
 4.855499e-01, 5.561388e-03, 5.057270e-05
 4.874385e-01, 5.652701e-03, 5.104136e-05
 4.893272e-01, 5.538916e-03, 5.114613e-05
 4.912158e-01, 5.499658e-03, 5.099495e-05
 4.931045e-01, 5.524188e-03, 5.119160e-05
 4.949931e-01, 5.548664e-03, 5.217436e-05
 4.968818e-01, 5.627320e-03, 5.305724e-05
 4.987704e-01, 5.486167e-03, 5.216647e-05
 5.006591e-01, 5.539179e-03, 5.259214e-05
 5.025477e-01, 5.513923e-03, 5.314147e-05
 5.044364e-01, 5.484635e-03, 5.324135e-05
 5.063250e-01, 5.439513e-03, 5.356852e-05
 5.082137e-01, 5.462574e-03, 5.387143e-05
 5.101023e-01, 5.472719e-03, 5.367991e-05
 5.119909e-01, 5.407999e-03, 5.436616e-05
 5.138796e-01, 5.405953e-03, 5.369829e-05
 5.157682e-01, 5.346773e-03, 5.381324e-05
 5.176569e-01, 5.430524e-03, 5.538468e-05
 5.195455e-01, 5.355926e-03, 5.467509e-05
 5.214342e-01, 5.385497e-03, 5.418104e-05
 5.233228e-01, 5.461355e-03, 5.565861e-05
 5.252115e-01, 5.390003e-03, 5.553753e-05
 5.271001e-01, 5.310153e-03, 5.482548e-05
 5.289888e-01, 5.368177e-03, 5.599146e-05
 5.308774e-01, 5.305032e-03, 5.477553e-05
 5.327661e-01, 5.178343e-03, 5.514182e-05
 5.346547e-01, 5.362521e-03, 5.587172e-05
 5.365434e-01, 5.308991e-03, 5.570234e-05
 5.384320e-01, 5.260289e-03, 5.627346e-05
 5.403207e-01, 5.321040e-03, 5.616675e-05
 5.422093e-01, 5.305851e-03, 5.535343e-05
 5.440980e-01, 5.301168e-03, 5.625235e-05
 5.459866e-01, 5.303340e-03, 5.601737e-05
 5.478753e-01, 5.282121e-03, 5.623416e-05
 5.497639e-01, 5.288744e-03, 5.631106e-05
 5.516526e-01, 5.290952e-03, 5.579013e-05
 5.535412e-01, 5.233829e-03, 5.617391e-05
 5.554299e-01, 5.244514e-03, 5.649396e-05
 5.573185e-01, 5.135174e-03, 5.572501e-05
 5.592072e-01, 5.383219e-03, 5.747354e-05
 5.610958e-01, 5.130920e-03, 5.630221e-05
 5.629845e-01, 5.228461e-03, 5.672731e-05
 5.648731e-01, 5.199386e-03, 5.680100e-05
 5.667618e-01, 5.142881e-03, 5.730608e-05
 5.686504e-01, 5.250894e-03, 5.705471e-05
 5.705391e-01, 5.204916e-03, 5.786098e-05
 5.724277e-01, 5.249412e-03, 5.819404e-05
 5.743164e-01, 5.181246e-03, 5.661635e-05
 5.762050e-01, 5.182609e-03, 5.791438e-05
 5.780937e-01, 5.240070e-03, 5.906765e-05
 5.799823e-01, 5.077845e-03, 5.733744e-05
 5.818710e-01, 5.122239e-03, 5.723619e-05
 5.837596e-01, 5.198927e-03, 5.847770e-05
 5.856483e-01, 5.169053e-03, 5.831531e-05
 5.875369e-01, 5.213847e-03, 5.911863e-05
 5.894256e-01, 5.214875e-03, 5.934430e-05
 5.913142e-01, 5.087265e-03, 5.836645e-05
 5.932029e-01, 5.227286e-03, 5.887494e-05
 5.950915e-01, 5.226527e-03, 6.194898e-05
 5.969802e-01, 5.108515e-03, 6.249445e-05
 5.988688e-01, 5.148133e-03, 6.485009e-05
 6.007575e-01, 5.281540e-03, 6.736418e-05
 6.026461e-01, 5.163497e-03, 6.794075e-05
 6.045348e-01, 5.085185e-03, 6.855616e-05
 6.064234e-01, 5.062179e-03, 6.930591e-05
 6.083121e-01, 5.183309e-03, 7.199041e-05
 6.102007e-01, 5.292723e-03, 7.453061e-05
 6.120894e-01, 5.027811e-03, 7.314389e-05
 6.139780e-01, 5.176537e-03, 7.615849e-05
 6.158667e-01, 5.341911e-03, 7.793636e-05
 6.177553e-01, 5.265830e-03, 7.964829e-05
 6.196440e-01, 5.132920e-03, 7.978418e-05
 6.215326e-01, 5.221009e-03, 8.258237e-05
 6.234212e-01, 5.141169e-03, 8.150325e-05
 6.253099e-01, 5.233535e-03, 8.387894e-05
 6.271985e-01, 5.338494e-03, 8.794274e-05
 6.290872e-01, 5.254429e-03, 8.619611e-05
 6.309758e-01, 5.167219e-03, 8.735442e-05
 6.328645e-01, 5.103640e-03, 8.940006e-05
 6.347531e-01, 5.244794e-03, 9.018652e-05
 6.366418e-01, 5.337999e-03, 9.269819e-05
 6.385304e-01, 5.219709e-03, 9.499807e-05
 6.404191e-01, 5.115950e-03, 9.337292e-05
 6.423077e-01, 5.124804e-03, 9.467677e-05
 6.441964e-01, 5.042649e-03, 9.904698e-05
 6.460850e-01, 5.084141e-03, 9.726963e-05
 6.479737e-01, 5.215942e-03, 1.005486e-04
 6.498623e-01, 5.281294e-03, 1.047085e-04
 6.517510e-01, 5.049593e-03, 1.044992e-04
 6.536396e-01, 5.144266e-03, 1.040574e-04
 6.555283e-01, 5.124865e-03, 1.091385e-04
 6.574169e-01, 5.303954e-03, 1.144946e-04
 6.593056e-01, 5.112160e-03, 1.101237e-04
 6.611942e-01, 5.280131e-03, 1.173942e-04
 6.630829e-01, 5.032477e-03, 1.172565e-04
 6.649715e-01, 5.102734e-03, 1.174051e-04
 6.668602e-01, 5.114560e-03, 1.237555e-04
 6.687488e-01, 5.501509e-03, 1.300335e-04
 6.706375e-01, 5.230665e-03, 1.284978e-04
 6.725261e-01, 5.069026e-03, 1.295922e-04
 6.744148e-01, 5.048523e-03, 1.302655e-04
 6.763034e-01, 5.077824e-03, 1.320810e-04
 6.781921e-01, 5.316283e-03, 1.387539e-04
 6.800807e-01, 5.179883e-03, 1.369784e-04
 6.819694e-01, 5.285771e-03, 1.405671e-04
 6.838580e-01, 5.162695e-03, 1.423684e-04
 6.857467e-01, 5.159591e-03, 1.435437e-04
 6.876353e-01, 5.250361e-03, 1.466948e-04
 6.895240e-01, 4.946079e-03, 1.442920e-04
 6.914126e-01, 5.270991e-03, 1.524146e-04
 6.933013e-01, 5.055002e-03, 1.499796e-04
 6.951899e-01, 4.970524e-03, 1.539076e-04
 6.970786e-01, 4.775712e-03, 1.501232e-04
 6.989672e-01, 5.408169e-03, 1.647944e-04
 7.008559e-01, 4.999401e-03, 1.619465e-04
 7.027445e-01, 5.241987e-03, 1.658491e-04
 7.046332e-01, 5.008218e-03, 1.688270e-04
 7.065218e-01, 5.221218e-03, 1.767114e-04
 7.084105e-01, 5.251078e-03, 1.750359e-04
 7.102991e-01, 5.225745e-03, 1.839549e-04
 7.121878e-01, 5.247092e-03, 1.856288e-04
 7.140764e-01, 5.105035e-03, 1.884303e-04
 7.159651e-01, 4.930204e-03, 1.908983e-04
 7.178537e-01, 4.964639e-03, 1.931021e-04
 7.197424e-01, 5.314225e-03, 2.100632e-04
 7.216310e-01, 5.622856e-03, 2.161039e-04
 7.235197e-01, 5.281733e-03, 2.193120e-04
 7.254083e-01, 5.300887e-03, 2.311297e-04
 7.272970e-01, 5.554227e-03, 2.366180e-04
 7.291856e-01, 5.607723e-03, 2.515407e-04
 7.310743e-01, 5.734388e-03, 2.574816e-04
 7.329629e-01, 5.337372e-03, 2.688929e-04
 7.348515e-01, 5.231150e-03, 2.741867e-04
 7.367402e-01, 5.417039e-03, 2.879124e-04
 7.386288e-01, 5.360033e-03, 3.069146e-04
 7.405175e-01, 5.819208e-03, 3.465288e-04
 7.424061e-01, 5.606432e-03, 3.560088e-04
 7.442948e-01, 5.448399e-03, 3.690122e-04
 7.461834e-01, 5.414808e-03, 4.140807e-04
 7.480721e-01, 5.226167e-03, 4.751061e-04
 7.499607e-01, 6.811623e-03, 5.997299e-04
 7.518494e-01, 4.991208e-03, 6.288332e-04
 7.537380e-01, 7.766128e-03, 1.109447e-03
 7.556267e-01, NaN, NaN
 7.575153e-01, NaN, NaN
#HEADERS
"latest_0021227_caz","KF LIPNOR2 DRY 68, conf 22, I0=22, trans=15414665.848842, time=1800"
